# Counting axions with IAXO (arXiv:2606.XXXXX) by B. Grinstein, C. Miro and P. Quilez
# g_disc for 2 axions in the hierarchical scenario from solar axions: experiment IAXO+, energy resolution 10 eV, mixing angle pi/4
# sqrt(Delta_m21^2) [eV]    g_IAXOplus [GeV^-1]    (varphi = pi/4, w_res = 10 eV)
1.000000e-03 1.053533e-08
1.005318e-03 1.027217e-08
1.010664e-03 1.010746e-08
1.016038e-03 9.893151e-09
1.021441e-03 9.679408e-09
1.026873e-03 9.465589e-09
1.032333e-03 9.280182e-09
1.037823e-03 9.087850e-09
1.043342e-03 8.899922e-09
1.048890e-03 8.713257e-09
1.054468e-03 8.530408e-09
1.060075e-03 8.345923e-09
1.065712e-03 8.173488e-09
1.071380e-03 8.000455e-09
1.077077e-03 7.832751e-09
1.082804e-03 7.658249e-09
1.088562e-03 7.509373e-09
1.094351e-03 7.351586e-09
1.100171e-03 7.196167e-09
1.106021e-03 7.039630e-09
1.111902e-03 6.900080e-09
1.117815e-03 6.753066e-09
1.123759e-03 6.613786e-09
1.129735e-03 6.474601e-09
1.135743e-03 6.338674e-09
1.141782e-03 6.203446e-09
1.147854e-03 6.074810e-09
1.153958e-03 5.948446e-09
1.160094e-03 5.821911e-09
1.166263e-03 5.700809e-09
1.172465e-03 5.581423e-09
1.178700e-03 5.464666e-09
1.184968e-03 5.349139e-09
1.191269e-03 5.236556e-09
1.197604e-03 5.125225e-09
1.203973e-03 5.019931e-09
1.210375e-03 4.914303e-09
1.216812e-03 4.811902e-09
1.223282e-03 4.710408e-09
1.229787e-03 4.612064e-09
1.236327e-03 4.514540e-09
1.242901e-03 4.420407e-09
1.249511e-03 4.327873e-09
1.256155e-03 4.237106e-09
1.262835e-03 4.147956e-09
1.269551e-03 4.060819e-09
1.276302e-03 3.975901e-09
1.283089e-03 3.892333e-09
1.289912e-03 3.810881e-09
1.296771e-03 3.731022e-09
1.303667e-03 3.652764e-09
1.310600e-03 3.576073e-09
1.317569e-03 3.500992e-09
1.324575e-03 3.427615e-09
1.331619e-03 3.355740e-09
1.338700e-03 3.285373e-09
1.345819e-03 3.216484e-09
1.352976e-03 3.149015e-09
1.360170e-03 3.082867e-09
1.367403e-03 3.018209e-09
1.374675e-03 2.955059e-09
1.381985e-03 2.893085e-09
1.389334e-03 2.832396e-09
1.396722e-03 2.773001e-09
1.404149e-03 2.714842e-09
1.411616e-03 2.657798e-09
1.419123e-03 2.602114e-09
1.426669e-03 2.547621e-09
1.434256e-03 2.494209e-09
1.441883e-03 2.441862e-09
1.449550e-03 2.390717e-09
1.457259e-03 2.340606e-09
1.465008e-03 2.291493e-09
1.472798e-03 2.243479e-09
1.480630e-03 2.196456e-09
1.488504e-03 2.150413e-09
1.496419e-03 2.105326e-09
1.504377e-03 2.061198e-09
1.512377e-03 2.017995e-09
1.520419e-03 1.975690e-09
1.528504e-03 1.934286e-09
1.536632e-03 1.893738e-09
1.544804e-03 1.854045e-09
1.553019e-03 1.815197e-09
1.561277e-03 1.777150e-09
1.569580e-03 1.739913e-09
1.577926e-03 1.703452e-09
1.586317e-03 1.667753e-09
1.594753e-03 1.632804e-09
1.603233e-03 1.598593e-09
1.611759e-03 1.565100e-09
1.620329e-03 1.532315e-09
1.628946e-03 1.500212e-09
1.637608e-03 1.468782e-09
1.646317e-03 1.438017e-09
1.655071e-03 1.407894e-09
1.663872e-03 1.378406e-09
1.672720e-03 1.349535e-09
1.681615e-03 1.321271e-09
1.690558e-03 1.293601e-09
1.699548e-03 1.266512e-09
1.708585e-03 1.239991e-09
1.717671e-03 1.214027e-09
1.726805e-03 1.188609e-09
1.735988e-03 1.163724e-09
1.745219e-03 1.139361e-09
1.754500e-03 1.115512e-09
1.763830e-03 1.092163e-09
1.773209e-03 1.069304e-09
1.782639e-03 1.046925e-09
1.792118e-03 1.025016e-09
1.801648e-03 1.003567e-09
1.811229e-03 9.825691e-10
1.820860e-03 9.620120e-10
1.830543e-03 9.418860e-10
1.840278e-03 9.221843e-10
1.850064e-03 9.028956e-10
1.859902e-03 8.840118e-10
1.869792e-03 8.655256e-10
1.879735e-03 8.474274e-10
1.889731e-03 8.297094e-10
1.899780e-03 8.123636e-10
1.909883e-03 7.953823e-10
1.920039e-03 7.787579e-10
1.930249e-03 7.624828e-10
1.940513e-03 7.465497e-10
1.950833e-03 7.309515e-10
1.961207e-03 7.156812e-10
1.971636e-03 7.007318e-10
1.982120e-03 6.860967e-10
1.992661e-03 6.717692e-10
2.003257e-03 6.577428e-10
2.013910e-03 6.440114e-10
2.024619e-03 6.305687e-10
2.035385e-03 6.174086e-10
2.046209e-03 6.045253e-10
2.057090e-03 5.919129e-10
2.068029e-03 5.795658e-10
2.079026e-03 5.674784e-10
2.090082e-03 5.556453e-10
2.101196e-03 5.440610e-10
2.112370e-03 5.327206e-10
2.123603e-03 5.216188e-10
2.134896e-03 5.107506e-10
2.146248e-03 5.001111e-10
2.157662e-03 4.896956e-10
2.169135e-03 4.794993e-10
2.180670e-03 4.695177e-10
2.192266e-03 4.597464e-10
2.203924e-03 4.501808e-10
2.215644e-03 4.408167e-10
2.227426e-03 4.316498e-10
2.239271e-03 4.226762e-10
2.251179e-03 4.138916e-10
2.263150e-03 4.052922e-10
2.275185e-03 3.968741e-10
2.287284e-03 3.886334e-10
2.299447e-03 3.805666e-10
2.311674e-03 3.726700e-10
2.323967e-03 3.649399e-10
2.336325e-03 3.573730e-10
2.348749e-03 3.499658e-10
2.361239e-03 3.427150e-10
2.373796e-03 3.356174e-10
2.386419e-03 3.286697e-10
2.399109e-03 3.218688e-10
2.411867e-03 3.152117e-10
2.424692e-03 3.086954e-10
2.437586e-03 3.023169e-10
2.450549e-03 2.960733e-10
2.463580e-03 2.899619e-10
2.476681e-03 2.839800e-10
2.489851e-03 2.781247e-10
2.503091e-03 2.723935e-10
2.516402e-03 2.667839e-10
2.529783e-03 2.612932e-10
2.543236e-03 2.559190e-10
2.556760e-03 2.506589e-10
2.570356e-03 2.455106e-10
2.584025e-03 2.404716e-10
2.597766e-03 2.355399e-10
2.611580e-03 2.307130e-10
2.625468e-03 2.259889e-10
2.639429e-03 2.213655e-10
2.653465e-03 2.168406e-10
2.667575e-03 2.124122e-10
2.681761e-03 2.080784e-10
2.696021e-03 2.038371e-10
2.710358e-03 1.996865e-10
2.724771e-03 1.956247e-10
2.739260e-03 1.916499e-10
2.753827e-03 1.877602e-10
2.768471e-03 1.839540e-10
2.783193e-03 1.802296e-10
2.797993e-03 1.765851e-10
2.812872e-03 1.730191e-10
2.827830e-03 1.695298e-10
2.842868e-03 1.661158e-10
2.857985e-03 1.627754e-10
2.873183e-03 1.595073e-10
2.888462e-03 1.563098e-10
2.903822e-03 1.531816e-10
2.919264e-03 1.501212e-10
2.934788e-03 1.471273e-10
2.950394e-03 1.441984e-10
2.966083e-03 1.413334e-10
2.981856e-03 1.385308e-10
2.997713e-03 1.357895e-10
3.013654e-03 1.331080e-10
3.029679e-03 1.304854e-10
3.045790e-03 1.279203e-10
3.061987e-03 1.254115e-10
3.078270e-03 1.229580e-10
3.094639e-03 1.205586e-10
3.111095e-03 1.182122e-10
3.127639e-03 1.159177e-10
3.144271e-03 1.136741e-10
3.160992e-03 1.114804e-10
3.177801e-03 1.093354e-10
3.194699e-03 1.072383e-10
3.211688e-03 1.051881e-10
3.228767e-03 1.031837e-10
3.245936e-03 1.012243e-10
3.263197e-03 9.930896e-11
3.280550e-03 9.743674e-11
3.297995e-03 9.560676e-11
3.315533e-03 9.381816e-11
3.333164e-03 9.207009e-11
3.350889e-03 9.036170e-11
3.368708e-03 8.869217e-11
3.386622e-03 8.706069e-11
3.404631e-03 8.546647e-11
3.422735e-03 8.390873e-11
3.440937e-03 8.238669e-11
3.459234e-03 8.089960e-11
3.477630e-03 7.944672e-11
3.496123e-03 7.802732e-11
3.514714e-03 7.664068e-11
3.533404e-03 7.528609e-11
3.552194e-03 7.396287e-11
3.571083e-03 7.267032e-11
3.590073e-03 7.140777e-11
3.609164e-03 7.017457e-11
3.628357e-03 6.897005e-11
3.647651e-03 6.779358e-11
3.667049e-03 6.664452e-11
3.686549e-03 6.552226e-11
3.706153e-03 6.442618e-11
3.725861e-03 6.335567e-11
3.745674e-03 6.231016e-11
3.765593e-03 6.128904e-11
3.785617e-03 6.029175e-11
3.805748e-03 5.931773e-11
3.825986e-03 5.836640e-11
3.846331e-03 5.743724e-11
3.866785e-03 5.652969e-11
3.887347e-03 5.564323e-11
3.908019e-03 5.477733e-11
3.928801e-03 5.393149e-11
3.949693e-03 5.310520e-11
3.970696e-03 5.229796e-11
3.991811e-03 5.150929e-11
4.013039e-03 5.073870e-11
4.034379e-03 4.998573e-11
4.055832e-03 4.924992e-11
4.077400e-03 4.853081e-11
4.099083e-03 4.782796e-11
4.120880e-03 4.714092e-11
4.142794e-03 4.646929e-11
4.164824e-03 4.581262e-11
4.186971e-03 4.517052e-11
4.209237e-03 4.454259e-11
4.231620e-03 4.392842e-11
4.254123e-03 4.332764e-11
4.276745e-03 4.273987e-11
4.299487e-03 4.216475e-11
4.322351e-03 4.160191e-11
4.345336e-03 4.105101e-11
4.368443e-03 4.051171e-11
4.391673e-03 3.998369e-11
4.415027e-03 3.946662e-11
4.438505e-03 3.896021e-11
4.462107e-03 3.846414e-11
4.485835e-03 3.797814e-11
4.509690e-03 3.750193e-11
4.533671e-03 3.703526e-11
4.557780e-03 3.657788e-11
4.582017e-03 3.612956e-11
4.606383e-03 3.569008e-11
4.630878e-03 3.525925e-11
4.655504e-03 3.483691e-11
4.680260e-03 3.442290e-11
4.705148e-03 3.401711e-11
4.730169e-03 3.361947e-11
4.755323e-03 3.322995e-11
4.780610e-03 3.284858e-11
4.806032e-03 3.247550e-11
4.831589e-03 3.211091e-11
4.857282e-03 3.175519e-11
4.883112e-03 3.140882e-11
4.909079e-03 3.107230e-11
4.935184e-03 3.074591e-11
4.961428e-03 3.042945e-11
4.987811e-03 3.012231e-11
5.014335e-03 2.982379e-11
5.041000e-03 2.953316e-11
5.067806e-03 2.924970e-11
5.094755e-03 2.897263e-11
5.121848e-03 2.870125e-11
5.149084e-03 2.843502e-11
5.176466e-03 2.817356e-11
5.203993e-03 2.791662e-11
5.231666e-03 2.766395e-11
5.259486e-03 2.741532e-11
5.287455e-03 2.717044e-11
5.315572e-03 2.692904e-11
5.343839e-03 2.669091e-11
5.372256e-03 2.645593e-11
5.400824e-03 2.622404e-11
5.429544e-03 2.599523e-11
5.458416e-03 2.576947e-11
5.487443e-03 2.554669e-11
5.516623e-03 2.532675e-11
5.545959e-03 2.510949e-11
5.575451e-03 2.489479e-11
5.605100e-03 2.468260e-11
5.634906e-03 2.447291e-11
5.664871e-03 2.426577e-11
5.694995e-03 2.406118e-11
5.725279e-03 2.385910e-11
5.755725e-03 2.365943e-11
5.786332e-03 2.346203e-11
5.817102e-03 2.326680e-11
5.848035e-03 2.307372e-11
5.879134e-03 2.288279e-11
5.910397e-03 2.269407e-11
5.941827e-03 2.250757e-11
5.973424e-03 2.232325e-11
6.005189e-03 2.214098e-11
6.037123e-03 2.196067e-11
6.069226e-03 2.178225e-11
6.101501e-03 2.160572e-11
6.133947e-03 2.143111e-11
6.166565e-03 2.125847e-11
6.199357e-03 2.108780e-11
6.232324e-03 2.091903e-11
6.265465e-03 2.075204e-11
6.298783e-03 2.058677e-11
6.332278e-03 2.042320e-11
6.365952e-03 2.026135e-11
6.399804e-03 2.010127e-11
6.433836e-03 1.994299e-11
6.468049e-03 1.978646e-11
6.502445e-03 1.963159e-11
6.537023e-03 1.947830e-11
6.571785e-03 1.932656e-11
6.606732e-03 1.917639e-11
6.641864e-03 1.902785e-11
6.677184e-03 1.888096e-11
6.712691e-03 1.873569e-11
6.748387e-03 1.859196e-11
6.784273e-03 1.844969e-11
6.820350e-03 1.830887e-11
6.856619e-03 1.816950e-11
6.893080e-03 1.803163e-11
6.929736e-03 1.789528e-11
6.966586e-03 1.776045e-11
7.003632e-03 1.762705e-11
7.040876e-03 1.749503e-11
7.078317e-03 1.736436e-11
7.115957e-03 1.723505e-11
7.153798e-03 1.710714e-11
7.191840e-03 1.698068e-11
7.230084e-03 1.685564e-11
7.268531e-03 1.673196e-11
7.307183e-03 1.660959e-11
7.346041e-03 1.648852e-11
7.385105e-03 1.636876e-11
7.424377e-03 1.625036e-11
7.463857e-03 1.613335e-11
7.503548e-03 1.601771e-11
7.543450e-03 1.590339e-11
7.583564e-03 1.579033e-11
7.623891e-03 1.567853e-11
7.664432e-03 1.556802e-11
7.705190e-03 1.545884e-11
7.746164e-03 1.535098e-11
7.787355e-03 1.524440e-11
7.828766e-03 1.513902e-11
7.870397e-03 1.503482e-11
7.912250e-03 1.493180e-11
7.954325e-03 1.482999e-11
7.996624e-03 1.472940e-11
8.039148e-03 1.463001e-11
8.081897e-03 1.453177e-11
8.124875e-03 1.443463e-11
8.168080e-03 1.433857e-11
8.211516e-03 1.424361e-11
8.255182e-03 1.414977e-11
8.299081e-03 1.405706e-11
8.343213e-03 1.396545e-11
8.387580e-03 1.387490e-11
8.432183e-03 1.378537e-11
8.477022e-03 1.369685e-11
8.522101e-03 1.360937e-11
8.567419e-03 1.352293e-11
8.612978e-03 1.343755e-11
8.658779e-03 1.335320e-11
8.704824e-03 1.326985e-11
8.751114e-03 1.318746e-11
8.797650e-03 1.310605e-11
8.844433e-03 1.302559e-11
8.891465e-03 1.294612e-11
8.938747e-03 1.286763e-11
8.986281e-03 1.279013e-11
9.034068e-03 1.271358e-11
9.082108e-03 1.263797e-11
9.130404e-03 1.256327e-11
9.178957e-03 1.248949e-11
9.227768e-03 1.241662e-11
9.276839e-03 1.234468e-11
9.326170e-03 1.227366e-11
9.375764e-03 1.220357e-11
9.425622e-03 1.213437e-11
9.475744e-03 1.206607e-11
9.526134e-03 1.199864e-11
9.576791e-03 1.193208e-11
9.627717e-03 1.186638e-11
9.678915e-03 1.180155e-11
9.730384e-03 1.173759e-11
9.782128e-03 1.167449e-11
9.834146e-03 1.161226e-11
9.886441e-03 1.155088e-11
9.939015e-03 1.149035e-11
9.991867e-03 1.143065e-11
1.004500e-02 1.137178e-11
1.009842e-02 1.131373e-11
1.015212e-02 1.125651e-11
1.020610e-02 1.120012e-11
1.026038e-02 1.114454e-11
1.031494e-02 1.108979e-11
1.036979e-02 1.103586e-11
1.042493e-02 1.098274e-11
1.048037e-02 1.093045e-11
1.053610e-02 1.087896e-11
1.059213e-02 1.082828e-11
1.064846e-02 1.077841e-11
1.070508e-02 1.072935e-11
1.076201e-02 1.068108e-11
1.081924e-02 1.063362e-11
1.087677e-02 1.058696e-11
1.093461e-02 1.054109e-11
1.099276e-02 1.049602e-11
1.105121e-02 1.045174e-11
1.110998e-02 1.040825e-11
1.116906e-02 1.036555e-11
1.122845e-02 1.032364e-11
1.128816e-02 1.028251e-11
1.134819e-02 1.024216e-11
1.140854e-02 1.020259e-11
1.146921e-02 1.016380e-11
1.153020e-02 1.012579e-11
1.159151e-02 1.008855e-11
1.165315e-02 1.005208e-11
1.171512e-02 1.001638e-11
1.177742e-02 9.981455e-12
1.184004e-02 9.947297e-12
1.190301e-02 9.913911e-12
1.196630e-02 9.881297e-12
1.202994e-02 9.849454e-12
1.209391e-02 9.818385e-12
1.215822e-02 9.788088e-12
1.222287e-02 9.758565e-12
1.228787e-02 9.729818e-12
1.235321e-02 9.701851e-12
1.241891e-02 9.674665e-12
1.248495e-02 9.648263e-12
1.255134e-02 9.622645e-12
1.261808e-02 9.597809e-12
1.268518e-02 9.573755e-12
1.275264e-02 9.550480e-12
1.282045e-02 9.527985e-12
1.288863e-02 9.506271e-12
1.295717e-02 9.485341e-12
1.302607e-02 9.465199e-12
1.309534e-02 9.445848e-12
1.316497e-02 9.427295e-12
1.323498e-02 9.409543e-12
1.330536e-02 9.392594e-12
1.337612e-02 9.376449e-12
1.344725e-02 9.361107e-12
1.351875e-02 9.346572e-12
1.359064e-02 9.332847e-12
1.366291e-02 9.319940e-12
1.373557e-02 9.307857e-12
1.380861e-02 9.296602e-12
1.388204e-02 9.286173e-12
1.395586e-02 9.276571e-12
1.403008e-02 9.267802e-12
1.410468e-02 9.259877e-12
1.417969e-02 9.252808e-12
1.425509e-02 9.246597e-12
1.433090e-02 9.241238e-12
1.440710e-02 9.236735e-12
1.448372e-02 9.233096e-12
1.456074e-02 9.230342e-12
1.463817e-02 9.228480e-12
1.471601e-02 9.227507e-12
1.479426e-02 9.227422e-12
1.487293e-02 9.228235e-12
1.495202e-02 9.229967e-12
1.503153e-02 9.232627e-12
1.511147e-02 9.236212e-12
1.519183e-02 9.240729e-12
1.527261e-02 9.246196e-12
1.535383e-02 9.252629e-12
1.543547e-02 9.260025e-12
1.551756e-02 9.268389e-12
1.560007e-02 9.277742e-12
1.568303e-02 9.288105e-12
1.576643e-02 9.299474e-12
1.585027e-02 9.311850e-12
1.593456e-02 9.325248e-12
1.601929e-02 9.339689e-12
1.610448e-02 9.355172e-12
1.619012e-02 9.371703e-12
1.627621e-02 9.389298e-12
1.636276e-02 9.407977e-12
1.644978e-02 9.427746e-12
1.653725e-02 9.448609e-12
1.662519e-02 9.470587e-12
1.671360e-02 9.493707e-12
1.680248e-02 9.517981e-12
1.689183e-02 9.543412e-12
1.698165e-02 9.570017e-12
1.707196e-02 9.597824e-12
1.716274e-02 9.626853e-12
1.725401e-02 9.657114e-12
1.734576e-02 9.688628e-12
1.743800e-02 9.721419e-12
1.753073e-02 9.755504e-12
1.762395e-02 9.790894e-12
1.771767e-02 9.827618e-12
1.781189e-02 9.865713e-12
1.790661e-02 9.905193e-12
1.800183e-02 9.946069e-12
1.809756e-02 9.988366e-12
1.819380e-02 1.003212e-11
1.829055e-02 1.007736e-11
1.838781e-02 1.012411e-11
1.848559e-02 1.017239e-11
1.858389e-02 1.022223e-11
1.868272e-02 1.027365e-11
1.878206e-02 1.032670e-11
1.888194e-02 1.038140e-11
1.898235e-02 1.043779e-11
1.908329e-02 1.049590e-11
1.918477e-02 1.055575e-11
1.928679e-02 1.061740e-11
1.938935e-02 1.068090e-11
1.949246e-02 1.074629e-11
1.959612e-02 1.081364e-11
1.970032e-02 1.088303e-11
1.980508e-02 1.095450e-11
1.991040e-02 1.102800e-11
2.001628e-02 1.110354e-11
2.012272e-02 1.118114e-11
2.022973e-02 1.126084e-11
2.033730e-02 1.134267e-11
2.044545e-02 1.142669e-11
2.055417e-02 1.151294e-11
2.066347e-02 1.160147e-11
2.077336e-02 1.169232e-11
2.088382e-02 1.178555e-11
2.099488e-02 1.188121e-11
2.110652e-02 1.197936e-11
2.121876e-02 1.208005e-11
2.133160e-02 1.218335e-11
2.144503e-02 1.228930e-11
2.155907e-02 1.239799e-11
2.167371e-02 1.250946e-11
2.178897e-02 1.262377e-11
2.190484e-02 1.274100e-11
2.202132e-02 1.286121e-11
2.213842e-02 1.298448e-11
2.225615e-02 1.311087e-11
2.237450e-02 1.324046e-11
2.249348e-02 1.337331e-11
2.261309e-02 1.350951e-11
2.273334e-02 1.364914e-11
2.285423e-02 1.379227e-11
2.297577e-02 1.393898e-11
2.309794e-02 1.408935e-11
2.322077e-02 1.424349e-11
2.334425e-02 1.440145e-11
2.346839e-02 1.456333e-11
2.359319e-02 1.472923e-11
2.371865e-02 1.489923e-11
2.384478e-02 1.507343e-11
2.397158e-02 1.525190e-11
2.409905e-02 1.543476e-11
2.422721e-02 1.562210e-11
2.435604e-02 1.581401e-11
2.448556e-02 1.601058e-11
2.461576e-02 1.621191e-11
2.474666e-02 1.641812e-11
2.487826e-02 1.662927e-11
2.501056e-02 1.684548e-11
2.514355e-02 1.706684e-11
2.527726e-02 1.729345e-11
2.541168e-02 1.752540e-11
2.554681e-02 1.776277e-11
2.568266e-02 1.800566e-11
2.581923e-02 1.825417e-11
2.595653e-02 1.850836e-11
2.609456e-02 1.876831e-11
2.623332e-02 1.903411e-11
2.637283e-02 1.930581e-11
2.651307e-02 1.958349e-11
2.665406e-02 1.986718e-11
2.679580e-02 2.015694e-11
2.693829e-02 2.045281e-11
2.708154e-02 2.075480e-11
2.722555e-02 2.106292e-11
2.737033e-02 2.137719e-11
2.751588e-02 2.169759e-11
2.766220e-02 2.202407e-11
2.780930e-02 2.235660e-11
2.795718e-02 2.269511e-11
2.810585e-02 2.303952e-11
2.825530e-02 2.338970e-11
2.840556e-02 2.374555e-11
2.855661e-02 2.410690e-11
2.870847e-02 2.447357e-11
2.886113e-02 2.484536e-11
2.901461e-02 2.522205e-11
2.916890e-02 2.560338e-11
2.932401e-02 2.598904e-11
2.947994e-02 2.637875e-11
2.963671e-02 2.677217e-11
2.979431e-02 2.716890e-11
2.995275e-02 2.756860e-11
3.011203e-02 2.797084e-11
3.027215e-02 2.837519e-11
3.043313e-02 2.878118e-11
3.059497e-02 2.918839e-11
3.075766e-02 2.959634e-11
3.092122e-02 3.000449e-11
3.108565e-02 3.041245e-11
3.125096e-02 3.081971e-11
3.141714e-02 3.122576e-11
3.158421e-02 3.163021e-11
3.175216e-02 3.203263e-11
3.192101e-02 3.243255e-11
3.209076e-02 3.282965e-11
3.226141e-02 3.322361e-11
3.243297e-02 3.361406e-11
3.260543e-02 3.400080e-11
3.277882e-02 3.438364e-11
3.295313e-02 3.476238e-11
3.312836e-02 3.513690e-11
3.330453e-02 3.550726e-11
3.348164e-02 3.587332e-11
3.365968e-02 3.623522e-11
3.383867e-02 3.659306e-11
3.401862e-02 3.694698e-11
3.419952e-02 3.729715e-11
3.438138e-02 3.764390e-11
3.456421e-02 3.798743e-11
3.474801e-02 3.832807e-11
3.493279e-02 3.866627e-11
3.511856e-02 3.900226e-11
3.530531e-02 3.933654e-11
3.549305e-02 3.966955e-11
3.568179e-02 4.000161e-11
3.587154e-02 4.033329e-11
3.606229e-02 4.066504e-11
3.625406e-02 4.099719e-11
3.644685e-02 4.133038e-11
3.664066e-02 4.166497e-11
3.683551e-02 4.200140e-11
3.703139e-02 4.234025e-11
3.722831e-02 4.268181e-11
3.742628e-02 4.302661e-11
3.762530e-02 4.337510e-11
3.782538e-02 4.372758e-11
3.802653e-02 4.408459e-11
3.822874e-02 4.444650e-11
3.843203e-02 4.481355e-11
3.863640e-02 4.518634e-11
3.884186e-02 4.556498e-11
3.904841e-02 4.594998e-11
3.925606e-02 4.634164e-11
3.946481e-02 4.674017e-11
3.967467e-02 4.714601e-11
3.988565e-02 4.755931e-11
4.009775e-02 4.798045e-11
4.031098e-02 4.840962e-11
4.052534e-02 4.884704e-11
4.074084e-02 4.929303e-11
4.095749e-02 4.974770e-11
4.117529e-02 5.021131e-11
4.139425e-02 5.068407e-11
4.161437e-02 5.116607e-11
4.183566e-02 5.165754e-11
4.205813e-02 5.215856e-11
4.228179e-02 5.266935e-11
4.250663e-02 5.318994e-11
4.273267e-02 5.372045e-11
4.295991e-02 5.426102e-11
4.318836e-02 5.481162e-11
4.341802e-02 5.537243e-11
4.364890e-02 5.594332e-11
4.388101e-02 5.652455e-11
4.411436e-02 5.711593e-11
4.434895e-02 5.771752e-11
4.458478e-02 5.832936e-11
4.482187e-02 5.895126e-11
4.506022e-02 5.958341e-11
4.529984e-02 6.022548e-11
4.554073e-02 6.087757e-11
4.578290e-02 6.153952e-11
4.602636e-02 6.221127e-11
4.627112e-02 6.289265e-11
4.651717e-02 6.358362e-11
4.676454e-02 6.428392e-11
4.701322e-02 6.499347e-11
4.726322e-02 6.571222e-11
4.751455e-02 6.643983e-11
4.776722e-02 6.717631e-11
4.802124e-02 6.792140e-11
4.827660e-02 6.867503e-11
4.853332e-02 6.943694e-11
4.879141e-02 7.020722e-11
4.905086e-02 7.098546e-11
4.931170e-02 7.177178e-11
4.957393e-02 7.256592e-11
4.983755e-02 7.336793e-11
5.010257e-02 7.417757e-11
5.036900e-02 7.499503e-11
5.063685e-02 7.582015e-11
5.090612e-02 7.665299e-11
5.117682e-02 7.749350e-11
5.144897e-02 7.834190e-11
5.172256e-02 7.919811e-11
5.199760e-02 8.006227e-11
5.227411e-02 8.093450e-11
5.255209e-02 8.181509e-11
5.283155e-02 8.270402e-11
5.311249e-02 8.360153e-11
5.339493e-02 8.450783e-11
5.367887e-02 8.542315e-11
5.396431e-02 8.634759e-11
5.425128e-02 8.728134e-11
5.453977e-02 8.822469e-11
5.482980e-02 8.917778e-11
5.512137e-02 9.014064e-11
