# sqrt(Delta_m21^2) [eV]    g_IAXOplus [GeV^-1]    (varphi = pi/4, w_res = 10 eV)
1.000000e-09 1.450297e-08
1.009963e-09 1.421826e-08
1.020025e-09 1.393914e-08
1.030187e-09 1.366549e-08
1.040450e-09 1.339722e-08
1.050816e-09 1.313422e-08
1.061285e-09 1.287638e-08
1.071858e-09 1.262360e-08
1.082537e-09 1.237578e-08
1.093322e-09 1.213283e-08
1.104214e-09 1.189465e-08
1.115215e-09 1.166114e-08
1.126326e-09 1.143222e-08
1.137547e-09 1.120779e-08
1.148880e-09 1.098777e-08
1.160326e-09 1.077207e-08
1.171886e-09 1.056060e-08
1.183561e-09 1.035328e-08
1.195353e-09 1.015004e-08
1.207262e-09 9.950782e-09
1.219289e-09 9.755438e-09
1.231437e-09 9.563929e-09
1.243705e-09 9.376180e-09
1.256096e-09 9.192116e-09
1.268610e-09 9.011666e-09
1.281249e-09 8.834759e-09
1.294013e-09 8.661325e-09
1.306905e-09 8.491296e-09
1.319925e-09 8.324604e-09
1.333075e-09 8.161186e-09
1.346356e-09 8.000975e-09
1.359770e-09 7.843910e-09
1.373317e-09 7.689928e-09
1.386999e-09 7.538970e-09
1.400817e-09 7.390975e-09
1.414773e-09 7.245885e-09
1.428868e-09 7.103644e-09
1.443103e-09 6.964196e-09
1.457480e-09 6.827485e-09
1.472001e-09 6.693459e-09
1.486666e-09 6.562063e-09
1.501477e-09 6.433248e-09
1.516436e-09 6.306961e-09
1.531544e-09 6.183154e-09
1.546802e-09 6.061777e-09
1.562212e-09 5.942783e-09
1.577776e-09 5.826126e-09
1.593495e-09 5.711759e-09
1.609371e-09 5.599637e-09
1.625404e-09 5.489716e-09
1.641598e-09 5.381954e-09
1.657953e-09 5.276307e-09
1.674470e-09 5.172735e-09
1.691153e-09 5.071196e-09
1.708001e-09 4.971650e-09
1.725017e-09 4.874059e-09
1.742203e-09 4.778384e-09
1.759560e-09 4.684588e-09
1.777090e-09 4.592633e-09
1.794795e-09 4.502484e-09
1.812676e-09 4.414104e-09
1.830735e-09 4.327460e-09
1.848974e-09 4.242517e-09
1.867395e-09 4.159242e-09
1.885999e-09 4.077601e-09
1.904789e-09 3.997564e-09
1.923765e-09 3.919098e-09
1.942931e-09 3.842173e-09
1.962288e-09 3.766759e-09
1.981838e-09 3.692825e-09
2.001582e-09 3.620343e-09
2.021524e-09 3.549284e-09
2.041663e-09 3.479620e-09
2.062004e-09 3.411324e-09
2.082547e-09 3.344369e-09
2.103295e-09 3.278729e-09
2.124249e-09 3.214378e-09
2.145413e-09 3.151291e-09
2.166787e-09 3.089442e-09
2.188374e-09 3.028808e-09
2.210176e-09 2.969364e-09
2.232195e-09 2.911088e-09
2.254434e-09 2.853956e-09
2.276894e-09 2.797946e-09
2.299578e-09 2.743036e-09
2.322488e-09 2.689205e-09
2.345626e-09 2.636430e-09
2.368995e-09 2.584692e-09
2.392597e-09 2.533970e-09
2.416433e-09 2.484244e-09
2.440508e-09 2.435495e-09
2.464822e-09 2.387703e-09
2.489378e-09 2.340850e-09
2.514179e-09 2.294917e-09
2.539227e-09 2.249886e-09
2.564525e-09 2.205740e-09
2.590074e-09 2.162460e-09
2.615878e-09 2.120031e-09
2.641939e-09 2.078435e-09
2.668260e-09 2.037656e-09
2.694843e-09 1.997679e-09
2.721691e-09 1.958486e-09
2.748807e-09 1.920064e-09
2.776192e-09 1.882396e-09
2.803851e-09 1.845468e-09
2.831785e-09 1.809266e-09
2.859997e-09 1.773775e-09
2.888490e-09 1.738981e-09
2.917267e-09 1.704871e-09
2.946331e-09 1.671431e-09
2.975685e-09 1.638648e-09
3.005330e-09 1.606510e-09
3.035272e-09 1.575002e-09
3.065511e-09 1.544114e-09
3.096052e-09 1.513833e-09
3.126897e-09 1.484147e-09
3.158049e-09 1.455045e-09
3.189512e-09 1.426514e-09
3.221288e-09 1.398544e-09
3.253381e-09 1.371124e-09
3.285793e-09 1.344243e-09
3.318529e-09 1.317890e-09
3.351590e-09 1.292056e-09
3.384981e-09 1.266729e-09
3.418705e-09 1.241900e-09
3.452764e-09 1.217559e-09
3.487163e-09 1.193697e-09
3.521905e-09 1.170305e-09
3.556992e-09 1.147372e-09
3.592430e-09 1.124890e-09
3.628220e-09 1.102850e-09
3.664367e-09 1.081244e-09
3.700874e-09 1.060063e-09
3.737744e-09 1.039299e-09
3.774982e-09 1.018943e-09
3.812591e-09 9.989871e-10
3.850575e-09 9.794242e-10
3.888937e-09 9.602463e-10
3.927682e-09 9.414458e-10
3.966812e-09 9.230154e-10
4.006332e-09 9.049477e-10
4.046246e-09 8.872356e-10
4.086558e-09 8.698722e-10
4.127271e-09 8.528507e-10
4.168389e-09 8.361644e-10
4.209918e-09 8.198066e-10
4.251860e-09 8.037710e-10
4.294220e-09 7.880513e-10
4.337002e-09 7.726412e-10
4.380210e-09 7.575347e-10
4.423849e-09 7.427259e-10
4.467923e-09 7.282088e-10
4.512435e-09 7.139779e-10
4.557391e-09 7.000275e-10
4.602795e-09 6.863521e-10
4.648651e-09 6.729464e-10
4.694964e-09 6.598050e-10
4.741739e-09 6.469227e-10
4.788980e-09 6.342946e-10
4.836691e-09 6.219156e-10
4.884877e-09 6.097808e-10
4.933544e-09 5.978855e-10
4.982695e-09 5.862249e-10
5.032336e-09 5.747946e-10
5.082472e-09 5.635899e-10
5.133107e-09 5.526065e-10
5.184247e-09 5.418400e-10
5.235896e-09 5.312862e-10
5.288060e-09 5.209409e-10
5.340743e-09 5.108001e-10
5.393951e-09 5.008596e-10
5.447689e-09 4.911157e-10
5.501963e-09 4.815645e-10
5.556778e-09 4.722022e-10
5.612138e-09 4.630250e-10
5.668050e-09 4.540295e-10
5.724519e-09 4.452119e-10
5.781551e-09 4.365689e-10
5.839151e-09 4.280970e-10
5.897324e-09 4.197929e-10
5.956078e-09 4.116533e-10
6.015416e-09 4.036750e-10
6.075346e-09 3.958548e-10
6.135873e-09 3.881896e-10
6.197003e-09 3.806764e-10
6.258742e-09 3.733123e-10
6.321096e-09 3.660942e-10
6.384071e-09 3.590194e-10
6.447674e-09 3.520851e-10
6.511910e-09 3.452885e-10
6.576786e-09 3.386269e-10
6.642309e-09 3.320976e-10
6.708484e-09 3.256982e-10
6.775319e-09 3.194260e-10
6.842819e-09 3.132787e-10
6.910992e-09 3.072536e-10
6.979844e-09 3.013485e-10
7.049382e-09 2.955610e-10
7.119613e-09 2.898888e-10
7.190544e-09 2.843297e-10
7.262181e-09 2.788814e-10
7.334532e-09 2.735418e-10
7.407604e-09 2.683088e-10
7.481403e-09 2.631803e-10
7.555938e-09 2.581543e-10
7.631216e-09 2.532287e-10
7.707243e-09 2.484016e-10
7.784028e-09 2.436710e-10
7.861578e-09 2.390352e-10
7.939901e-09 2.344921e-10
8.019004e-09 2.300401e-10
8.098895e-09 2.256773e-10
8.179582e-09 2.214020e-10
8.261072e-09 2.172124e-10
8.343375e-09 2.131069e-10
8.426497e-09 2.090838e-10
8.510448e-09 2.051415e-10
8.595235e-09 2.012784e-10
8.680867e-09 1.974929e-10
8.767352e-09 1.937834e-10
8.854698e-09 1.901486e-10
8.942915e-09 1.865867e-10
9.032011e-09 1.830965e-10
9.121994e-09 1.796765e-10
9.212874e-09 1.763252e-10
9.304659e-09 1.730412e-10
9.397358e-09 1.698233e-10
9.490981e-09 1.666699e-10
9.585537e-09 1.635799e-10
9.681035e-09 1.605519e-10
9.777484e-09 1.575846e-10
9.874894e-09 1.546767e-10
9.973275e-09 1.518271e-10
1.007264e-08 1.490345e-10
1.017299e-08 1.462976e-10
1.027434e-08 1.436154e-10
1.037670e-08 1.409866e-10
1.048008e-08 1.384101e-10
1.058449e-08 1.358848e-10
1.068994e-08 1.334096e-10
1.079644e-08 1.309834e-10
1.090400e-08 1.286051e-10
1.101263e-08 1.262737e-10
1.112235e-08 1.239882e-10
1.123316e-08 1.217476e-10
1.134507e-08 1.195508e-10
1.145810e-08 1.173970e-10
1.157225e-08 1.152851e-10
1.168754e-08 1.132143e-10
1.180398e-08 1.111837e-10
1.192158e-08 1.091924e-10
1.204035e-08 1.072395e-10
1.216031e-08 1.053242e-10
1.228146e-08 1.034457e-10
1.240381e-08 1.016033e-10
1.252739e-08 9.979611e-11
1.265219e-08 9.802344e-11
1.277824e-08 9.628457e-11
1.290555e-08 9.457882e-11
1.303412e-08 9.290550e-11
1.316398e-08 9.126397e-11
1.329513e-08 8.965360e-11
1.342758e-08 8.807378e-11
1.356136e-08 8.652392e-11
1.369647e-08 8.500344e-11
1.383292e-08 8.351178e-11
1.397073e-08 8.204841e-11
1.410992e-08 8.061279e-11
1.425049e-08 7.920441e-11
1.439247e-08 7.782277e-11
1.453585e-08 7.646737e-11
1.468067e-08 7.513773e-11
1.482693e-08 7.383337e-11
1.497465e-08 7.255382e-11
1.512383e-08 7.129860e-11
1.527451e-08 7.006727e-11
1.542668e-08 6.885936e-11
1.558037e-08 6.767441e-11
1.573560e-08 6.651197e-11
1.589237e-08 6.537159e-11
1.605070e-08 6.425283e-11
1.621061e-08 6.315523e-11
1.637211e-08 6.207836e-11
1.653522e-08 6.102177e-11
1.669995e-08 5.998505e-11
1.686633e-08 5.896775e-11
1.703436e-08 5.796946e-11
1.720407e-08 5.698977e-11
1.737547e-08 5.602829e-11
1.754858e-08 5.508462e-11
1.772341e-08 5.415837e-11
1.789998e-08 5.324919e-11
1.807831e-08 5.235672e-11
1.825842e-08 5.148061e-11
1.844033e-08 5.062053e-11
1.862404e-08 4.977617e-11
1.880959e-08 4.894720e-11
1.899698e-08 4.813334e-11
1.918624e-08 4.733430e-11
1.937739e-08 4.654978e-11
1.957044e-08 4.577952e-11
1.976541e-08 4.502325e-11
1.996233e-08 4.428071e-11
2.016121e-08 4.355163e-11
2.036207e-08 4.283577e-11
2.056493e-08 4.213288e-11
2.076981e-08 4.144270e-11
2.097674e-08 4.076499e-11
2.118572e-08 4.009953e-11
2.139679e-08 3.944606e-11
2.160996e-08 3.880436e-11
2.182525e-08 3.817419e-11
2.204269e-08 3.755533e-11
2.226230e-08 3.694756e-11
2.248409e-08 3.635066e-11
2.270809e-08 3.576442e-11
2.293433e-08 3.518862e-11
2.316281e-08 3.462307e-11
2.339358e-08 3.406756e-11
2.362664e-08 3.352190e-11
2.386203e-08 3.298590e-11
2.409976e-08 3.245938e-11
2.433985e-08 3.194215e-11
2.458235e-08 3.143404e-11
2.482725e-08 3.093488e-11
2.507460e-08 3.044450e-11
2.532441e-08 2.996273e-11
2.557671e-08 2.948941e-11
2.583152e-08 2.902439e-11
2.608887e-08 2.856751e-11
2.634879e-08 2.811862e-11
2.661129e-08 2.767758e-11
2.687641e-08 2.724424e-11
2.714418e-08 2.681846e-11
2.741461e-08 2.640009e-11
2.768773e-08 2.598901e-11
2.796357e-08 2.558508e-11
2.824217e-08 2.518817e-11
2.852353e-08 2.479816e-11
2.880771e-08 2.441490e-11
2.909471e-08 2.403830e-11
2.938457e-08 2.366821e-11
2.967732e-08 2.330453e-11
2.997299e-08 2.294714e-11
3.027160e-08 2.259592e-11
3.057319e-08 2.225076e-11
3.087778e-08 2.191156e-11
3.118540e-08 2.157821e-11
3.149609e-08 2.125060e-11
3.180988e-08 2.092863e-11
3.212679e-08 2.061220e-11
3.244686e-08 2.030121e-11
3.277012e-08 1.999556e-11
3.309660e-08 1.969516e-11
3.342633e-08 1.939993e-11
3.375935e-08 1.910976e-11
3.409568e-08 1.882457e-11
3.443537e-08 1.854427e-11
3.477844e-08 1.826878e-11
3.512492e-08 1.799801e-11
3.547486e-08 1.773187e-11
3.582829e-08 1.747030e-11
3.618523e-08 1.721321e-11
3.654574e-08 1.696051e-11
3.690983e-08 1.671214e-11
3.727755e-08 1.646802e-11
3.764894e-08 1.622807e-11
3.802402e-08 1.599223e-11
3.840285e-08 1.576042e-11
3.878544e-08 1.553257e-11
3.917185e-08 1.530862e-11
3.956211e-08 1.508850e-11
3.995625e-08 1.487214e-11
4.035432e-08 1.465948e-11
4.075636e-08 1.445045e-11
4.116241e-08 1.424501e-11
4.157249e-08 1.404307e-11
4.198667e-08 1.384459e-11
4.240497e-08 1.364951e-11
4.282744e-08 1.345776e-11
4.325411e-08 1.326930e-11
4.368504e-08 1.308406e-11
4.412026e-08 1.290200e-11
4.455982e-08 1.272305e-11
4.500376e-08 1.254718e-11
4.545212e-08 1.237432e-11
4.590494e-08 1.220442e-11
4.636228e-08 1.203745e-11
4.682417e-08 1.187334e-11
4.729067e-08 1.171205e-11
4.776181e-08 1.155354e-11
4.823765e-08 1.139776e-11
4.871822e-08 1.124467e-11
4.920359e-08 1.109421e-11
4.969379e-08 1.094635e-11
5.018887e-08 1.080105e-11
5.068889e-08 1.065826e-11
5.119389e-08 1.051794e-11
5.170392e-08 1.038006e-11
5.221903e-08 1.024457e-11
5.273927e-08 1.011143e-11
5.326470e-08 9.980614e-12
5.379536e-08 9.852078e-12
5.433131e-08 9.725786e-12
5.487259e-08 9.601704e-12
5.541927e-08 9.479795e-12
5.597140e-08 9.360026e-12
5.652902e-08 9.242364e-12
5.709220e-08 9.126775e-12
5.766100e-08 9.013227e-12
5.823546e-08 8.901689e-12
5.881564e-08 8.792129e-12
5.940160e-08 8.684517e-12
5.999340e-08 8.578824e-12
6.059110e-08 8.475021e-12
6.119475e-08 8.373077e-12
6.180441e-08 8.272967e-12
6.242015e-08 8.174661e-12
6.304203e-08 8.078134e-12
6.367010e-08 7.983358e-12
6.430442e-08 7.890309e-12
6.494507e-08 7.798960e-12
6.559210e-08 7.709288e-12
6.624557e-08 7.621267e-12
6.690556e-08 7.534874e-12
6.757212e-08 7.450086e-12
6.824532e-08 7.366881e-12
6.892522e-08 7.285235e-12
6.961191e-08 7.205127e-12
7.030543e-08 7.126536e-12
7.100586e-08 7.049441e-12
7.171327e-08 6.973822e-12
7.242773e-08 6.899659e-12
7.314930e-08 6.826932e-12
7.387807e-08 6.755622e-12
7.461409e-08 6.685712e-12
7.535745e-08 6.617182e-12
7.610822e-08 6.550015e-12
7.686646e-08 6.484194e-12
7.763226e-08 6.419702e-12
7.840568e-08 6.356523e-12
7.918682e-08 6.294640e-12
7.997573e-08 6.234038e-12
8.077250e-08 6.174702e-12
8.157722e-08 6.116617e-12
8.238995e-08 6.059768e-12
8.321077e-08 6.004142e-12
8.403978e-08 5.949725e-12
8.487704e-08 5.896502e-12
8.572265e-08 5.844462e-12
8.657667e-08 5.793592e-12
8.743921e-08 5.743879e-12
8.831034e-08 5.695311e-12
8.919015e-08 5.647878e-12
9.007873e-08 5.601566e-12
9.097615e-08 5.556366e-12
9.188252e-08 5.512267e-12
9.279792e-08 5.469257e-12
9.372244e-08 5.427327e-12
9.465617e-08 5.386467e-12
9.559920e-08 5.346667e-12
9.655163e-08 5.307917e-12
9.751354e-08 5.270209e-12
9.848504e-08 5.233531e-12
9.946622e-08 5.197877e-12
1.004572e-07 5.163236e-12
1.014580e-07 5.129599e-12
1.024688e-07 5.096959e-12
1.034897e-07 5.065305e-12
1.045207e-07 5.034628e-12
1.055620e-07 5.004920e-12
1.066137e-07 4.976172e-12
1.076758e-07 4.948374e-12
1.087486e-07 4.921516e-12
1.098320e-07 4.895589e-12
1.109262e-07 4.870582e-12
1.120314e-07 4.846485e-12
1.131475e-07 4.823285e-12
1.142748e-07 4.800972e-12
1.154132e-07 4.779532e-12
1.165631e-07 4.758952e-12
1.177243e-07 4.739217e-12
1.188972e-07 4.720313e-12
1.200817e-07 4.702222e-12
1.212781e-07 4.684926e-12
1.224863e-07 4.668407e-12
1.237066e-07 4.652643e-12
1.249391e-07 4.637612e-12
1.261838e-07 4.623290e-12
1.274409e-07 4.609650e-12
1.287106e-07 4.596665e-12
1.299929e-07 4.584304e-12
1.312880e-07 4.572535e-12
1.325960e-07 4.561323e-12
1.339170e-07 4.550630e-12
1.352512e-07 4.540418e-12
1.365986e-07 4.530644e-12
1.379595e-07 4.521265e-12
1.393340e-07 4.512235e-12
1.407221e-07 4.503506e-12
1.421241e-07 4.495028e-12
1.435400e-07 4.486750e-12
1.449701e-07 4.478620e-12
1.464144e-07 4.470586e-12
1.478730e-07 4.462595e-12
1.493463e-07 4.454597e-12
1.508341e-07 4.446540e-12
1.523369e-07 4.438376e-12
1.538546e-07 4.430061e-12
1.553874e-07 4.421554e-12
1.569354e-07 4.412816e-12
1.584989e-07 4.403817e-12
1.600780e-07 4.394532e-12
1.616728e-07 4.384942e-12
1.632835e-07 4.375036e-12
1.649103e-07 4.364811e-12
1.665532e-07 4.354271e-12
1.682125e-07 4.343430e-12
1.698884e-07 4.332310e-12
1.715809e-07 4.320938e-12
1.732903e-07 4.309354e-12
1.750168e-07 4.297600e-12
1.767604e-07 4.285726e-12
1.785214e-07 4.273789e-12
1.803000e-07 4.261850e-12
1.820963e-07 4.249971e-12
1.839104e-07 4.238219e-12
1.857427e-07 4.226663e-12
1.875932e-07 4.215371e-12
1.894621e-07 4.204410e-12
1.913497e-07 4.193847e-12
1.932560e-07 4.183745e-12
1.951814e-07 4.174167e-12
1.971259e-07 4.165168e-12
1.990898e-07 4.156802e-12
2.010733e-07 4.149117e-12
2.030765e-07 4.142156e-12
2.050997e-07 4.135956e-12
2.071431e-07 4.130549e-12
2.092068e-07 4.125960e-12
2.112910e-07 4.122208e-12
2.133961e-07 4.119307e-12
2.155221e-07 4.117264e-12
2.176693e-07 4.116080e-12
2.198378e-07 4.115748e-12
2.220280e-07 4.116258e-12
2.242400e-07 4.117591e-12
2.264740e-07 4.119722e-12
2.287303e-07 4.122623e-12
2.310091e-07 4.126256e-12
2.333106e-07 4.130579e-12
2.356350e-07 4.135547e-12
2.379825e-07 4.141105e-12
2.403535e-07 4.147197e-12
2.427481e-07 4.153761e-12
2.451665e-07 4.160731e-12
2.476090e-07 4.168038e-12
2.500759e-07 4.175609e-12
2.525673e-07 4.183371e-12
2.550835e-07 4.191248e-12
2.576249e-07 4.199165e-12
2.601915e-07 4.207046e-12
2.627837e-07 4.214819e-12
2.654018e-07 4.222412e-12
2.680459e-07 4.229760e-12
2.707163e-07 4.236799e-12
2.734134e-07 4.243473e-12
2.761373e-07 4.249733e-12
2.788884e-07 4.255535e-12
2.816669e-07 4.260845e-12
2.844731e-07 4.265637e-12
2.873072e-07 4.269893e-12
2.901695e-07 4.273604e-12
2.930604e-07 4.276768e-12
2.959801e-07 4.279394e-12
2.989288e-07 4.281496e-12
3.019070e-07 4.283097e-12
3.049148e-07 4.284224e-12
3.079526e-07 4.284911e-12
3.110206e-07 4.285196e-12
3.141192e-07 4.285119e-12
3.172487e-07 4.284725e-12
3.204093e-07 4.284057e-12
3.236015e-07 4.283161e-12
3.268254e-07 4.282082e-12
3.300815e-07 4.280863e-12
3.333700e-07 4.279547e-12
3.366913e-07 4.278172e-12
3.400456e-07 4.276777e-12
3.434334e-07 4.275394e-12
3.468549e-07 4.274054e-12
3.503105e-07 4.272784e-12
3.538006e-07 4.271608e-12
3.573254e-07 4.270546e-12
3.608853e-07 4.269615e-12
3.644807e-07 4.268827e-12
3.681119e-07 4.268195e-12
3.717793e-07 4.267725e-12
3.754832e-07 4.267423e-12
3.792240e-07 4.267292e-12
3.830021e-07 4.267332e-12
3.868179e-07 4.267544e-12
3.906716e-07 4.267924e-12
3.945638e-07 4.268468e-12
3.984947e-07 4.269172e-12
4.024648e-07 4.270031e-12
4.064744e-07 4.271037e-12
4.105240e-07 4.272183e-12
4.146139e-07 4.273463e-12
4.187446e-07 4.274867e-12
4.229164e-07 4.276389e-12
4.271298e-07 4.278022e-12
4.313852e-07 4.279756e-12
4.356829e-07 4.281586e-12
4.400235e-07 4.283504e-12
4.444073e-07 4.285503e-12
4.488348e-07 4.287576e-12
4.533065e-07 4.289717e-12
4.578226e-07 4.291920e-12
4.623838e-07 4.294180e-12
4.669903e-07 4.296491e-12
4.716428e-07 4.298851e-12
4.763417e-07 4.301253e-12
4.810873e-07 4.303697e-12
4.858803e-07 4.306178e-12
4.907209e-07 4.308694e-12
4.956098e-07 4.311245e-12
5.005474e-07 4.313829e-12
5.055343e-07 4.316445e-12
5.105707e-07 4.319095e-12
5.156574e-07 4.321778e-12
5.207947e-07 4.324496e-12
5.259833e-07 4.327250e-12
5.312235e-07 4.330041e-12
5.365159e-07 4.332872e-12
5.418611e-07 4.335745e-12
5.472595e-07 4.338662e-12
5.527116e-07 4.341626e-12
5.582181e-07 4.344640e-12
5.637795e-07 4.347706e-12
5.693963e-07 4.350826e-12
5.750690e-07 4.354003e-12
5.807982e-07 4.357241e-12
5.865845e-07 4.360540e-12
5.924285e-07 4.363904e-12
5.983307e-07 4.367335e-12
6.042917e-07 4.370835e-12
6.103121e-07 4.374406e-12
6.163924e-07 4.378050e-12
6.225334e-07 4.381769e-12
6.287355e-07 4.385564e-12
6.349994e-07 4.389439e-12
6.413257e-07 4.393393e-12
6.477150e-07 4.397430e-12
6.541680e-07 4.401551e-12
6.606853e-07 4.405757e-12
6.672675e-07 4.410050e-12
6.739153e-07 4.414432e-12
6.806293e-07 4.418904e-12
6.874102e-07 4.423467e-12
6.942587e-07 4.428123e-12
7.011754e-07 4.432871e-12
7.081610e-07 4.437709e-12
7.152162e-07 4.442636e-12
7.223417e-07 4.447652e-12
7.295381e-07 4.452759e-12
7.368063e-07 4.457960e-12
7.441469e-07 4.463258e-12
7.515606e-07 4.468657e-12
7.590482e-07 4.474161e-12
7.666103e-07 4.479771e-12
7.742478e-07 4.485491e-12
7.819614e-07 4.491322e-12
7.897519e-07 4.497266e-12
7.976200e-07 4.503325e-12
8.055664e-07 4.509499e-12
8.135920e-07 4.515789e-12
8.216976e-07 4.522196e-12
8.298839e-07 4.528722e-12
8.381518e-07 4.535366e-12
8.465021e-07 4.542132e-12
8.549355e-07 4.549023e-12
8.634530e-07 4.556042e-12
8.720553e-07 4.563193e-12
8.807433e-07 4.570481e-12
8.895179e-07 4.577911e-12
8.983799e-07 4.585485e-12
9.073302e-07 4.593205e-12
9.163697e-07 4.601064e-12
9.254992e-07 4.609056e-12
9.347197e-07 4.617183e-12
9.440320e-07 4.625453e-12
9.534371e-07 4.633873e-12
9.629359e-07 4.642451e-12
9.725294e-07 4.651191e-12
9.822184e-07 4.660096e-12
9.920039e-07 4.669167e-12
1.001887e-06 4.678404e-12
1.011868e-06 4.687804e-12
1.021949e-06 4.697371e-12
1.032131e-06 4.707106e-12
1.042414e-06 4.717018e-12
1.052799e-06 4.727116e-12
1.063288e-06 4.737406e-12
1.073881e-06 4.747894e-12
1.084580e-06 4.758570e-12
1.095385e-06 4.769418e-12
1.106298e-06 4.780447e-12
1.117320e-06 4.791671e-12
1.128451e-06 4.803102e-12
1.139694e-06 4.814747e-12
1.151048e-06 4.826606e-12
1.162516e-06 4.838675e-12
1.174097e-06 4.850953e-12
1.185794e-06 4.863445e-12
1.197608e-06 4.876163e-12
1.209540e-06 4.889124e-12
1.221590e-06 4.902335e-12
1.233760e-06 4.915768e-12
1.246052e-06 4.929413e-12
1.258466e-06 4.943295e-12
1.271004e-06 4.957432e-12
1.283666e-06 4.971833e-12
1.296455e-06 4.986489e-12
1.309371e-06 5.001397e-12
1.322416e-06 5.016564e-12
1.335591e-06 5.032012e-12
1.348897e-06 5.047763e-12
1.362336e-06 5.063783e-12
1.375908e-06 5.080054e-12
1.389616e-06 5.096611e-12
1.403460e-06 5.113477e-12
1.417443e-06 5.130649e-12
1.431564e-06 5.148113e-12
1.445826e-06 5.165881e-12
1.460231e-06 5.183991e-12
1.474779e-06 5.202445e-12
1.489471e-06 5.221182e-12
1.504310e-06 5.240240e-12
1.519297e-06 5.259656e-12
1.534434e-06 5.279421e-12
1.549721e-06 5.299519e-12
1.565160e-06 5.319988e-12
1.580753e-06 5.340863e-12
1.596502e-06 5.362064e-12
1.612408e-06 5.383628e-12
1.628471e-06 5.405599e-12
1.644695e-06 5.427954e-12
1.661081e-06 5.450697e-12
1.677630e-06 5.473895e-12
1.694344e-06 5.497488e-12
1.711224e-06 5.521466e-12
1.728272e-06 5.545899e-12
1.745491e-06 5.570761e-12
1.762880e-06 5.596066e-12
1.780443e-06 5.621883e-12
1.798181e-06 5.648099e-12
1.816096e-06 5.674797e-12
1.834189e-06 5.701982e-12
1.852463e-06 5.729644e-12
1.870918e-06 5.757873e-12
1.889558e-06 5.786540e-12
1.908383e-06 5.815746e-12
1.927396e-06 5.845474e-12
1.946598e-06 5.875759e-12
1.965991e-06 5.906622e-12
