# sqrt(Delta_m21^2) [eV]    g_IAXO [GeV^-1]    (varphi = pi/32, w_res = 100 eV)
1.000000e-09 1.701010e-07
1.009262e-09 1.669933e-07
1.018610e-09 1.639423e-07
1.028045e-09 1.609470e-07
1.037567e-09 1.580065e-07
1.047177e-09 1.551197e-07
1.056876e-09 1.522856e-07
1.066665e-09 1.495034e-07
1.076545e-09 1.467719e-07
1.086516e-09 1.440904e-07
1.096579e-09 1.414578e-07
1.106736e-09 1.388734e-07
1.116987e-09 1.363361e-07
1.127333e-09 1.338453e-07
1.137774e-09 1.313999e-07
1.148312e-09 1.289992e-07
1.158948e-09 1.266424e-07
1.169683e-09 1.243286e-07
1.180517e-09 1.220571e-07
1.191451e-09 1.198271e-07
1.202486e-09 1.176378e-07
1.213624e-09 1.154886e-07
1.224865e-09 1.133786e-07
1.236210e-09 1.113071e-07
1.247660e-09 1.092735e-07
1.259216e-09 1.072771e-07
1.270879e-09 1.053171e-07
1.282650e-09 1.033930e-07
1.294530e-09 1.015040e-07
1.306520e-09 9.964949e-08
1.318621e-09 9.782889e-08
1.330835e-09 9.604154e-08
1.343161e-09 9.428685e-08
1.355602e-09 9.256422e-08
1.368158e-09 9.087306e-08
1.380830e-09 8.921280e-08
1.393619e-09 8.758288e-08
1.406527e-09 8.598273e-08
1.419555e-09 8.441182e-08
1.432703e-09 8.286961e-08
1.445973e-09 8.135557e-08
1.459366e-09 7.986920e-08
1.472883e-09 7.840998e-08
1.486525e-09 7.697742e-08
1.500293e-09 7.557104e-08
1.514189e-09 7.419035e-08
1.528214e-09 7.283489e-08
1.542369e-09 7.150419e-08
1.556654e-09 7.019781e-08
1.571072e-09 6.891529e-08
1.585624e-09 6.765620e-08
1.600310e-09 6.642012e-08
1.615133e-09 6.520662e-08
1.630092e-09 6.401529e-08
1.645191e-09 6.284573e-08
1.660429e-09 6.169754e-08
1.675808e-09 6.057032e-08
1.691330e-09 5.946370e-08
1.706995e-09 5.837730e-08
1.722805e-09 5.731074e-08
1.738762e-09 5.626368e-08
1.754867e-09 5.523574e-08
1.771121e-09 5.422658e-08
1.787526e-09 5.323586e-08
1.804082e-09 5.226324e-08
1.820792e-09 5.130840e-08
1.837656e-09 5.037099e-08
1.854677e-09 4.945072e-08
1.871855e-09 4.854725e-08
1.889193e-09 4.766030e-08
1.906691e-09 4.678955e-08
1.924351e-09 4.593471e-08
1.942175e-09 4.509548e-08
1.960163e-09 4.427159e-08
1.978319e-09 4.346275e-08
1.996642e-09 4.266869e-08
2.015136e-09 4.188914e-08
2.033800e-09 4.112383e-08
2.052638e-09 4.037251e-08
2.071650e-09 3.963491e-08
2.090838e-09 3.891078e-08
2.110203e-09 3.819989e-08
2.129749e-09 3.750198e-08
2.149475e-09 3.681683e-08
2.169384e-09 3.614419e-08
2.189477e-09 3.548385e-08
2.209756e-09 3.483557e-08
2.230223e-09 3.419913e-08
2.250880e-09 3.357432e-08
2.271728e-09 3.296093e-08
2.292769e-09 3.235874e-08
2.314005e-09 3.176756e-08
2.335438e-09 3.118718e-08
2.357069e-09 3.061740e-08
2.378901e-09 3.005803e-08
2.400935e-09 2.950888e-08
2.423173e-09 2.896976e-08
2.445617e-09 2.844050e-08
2.468268e-09 2.792090e-08
2.491130e-09 2.741080e-08
2.514203e-09 2.691002e-08
2.537490e-09 2.641839e-08
2.560993e-09 2.593574e-08
2.584714e-09 2.546191e-08
2.608654e-09 2.499674e-08
2.632815e-09 2.454006e-08
2.657201e-09 2.409173e-08
2.681813e-09 2.365159e-08
2.706652e-09 2.321950e-08
2.731722e-09 2.279529e-08
2.757023e-09 2.237884e-08
2.782559e-09 2.197000e-08
2.808332e-09 2.156863e-08
2.834343e-09 2.117459e-08
2.860596e-09 2.078775e-08
2.887091e-09 2.040798e-08
2.913832e-09 2.003514e-08
2.940820e-09 1.966912e-08
2.968059e-09 1.930979e-08
2.995549e-09 1.895702e-08
3.023295e-09 1.861070e-08
3.051297e-09 1.827071e-08
3.079559e-09 1.793693e-08
3.108082e-09 1.760925e-08
3.136870e-09 1.728755e-08
3.165924e-09 1.697173e-08
3.195248e-09 1.666169e-08
3.224842e-09 1.635730e-08
3.254712e-09 1.605848e-08
3.284857e-09 1.576512e-08
3.315282e-09 1.547713e-08
3.345989e-09 1.519439e-08
3.376980e-09 1.491682e-08
3.408259e-09 1.464432e-08
3.439826e-09 1.437680e-08
3.471687e-09 1.411417e-08
3.503842e-09 1.385633e-08
3.536296e-09 1.360321e-08
3.569049e-09 1.335472e-08
3.602107e-09 1.311076e-08
3.635470e-09 1.287126e-08
3.669142e-09 1.263614e-08
3.703127e-09 1.240532e-08
3.737426e-09 1.217871e-08
3.772042e-09 1.195625e-08
3.806980e-09 1.173784e-08
3.842241e-09 1.152343e-08
3.877828e-09 1.131294e-08
3.913746e-09 1.110630e-08
3.949995e-09 1.090343e-08
3.986581e-09 1.070427e-08
4.023506e-09 1.050875e-08
4.060772e-09 1.031680e-08
4.098384e-09 1.012836e-08
4.136344e-09 9.943359e-09
4.174655e-09 9.761743e-09
4.213322e-09 9.583445e-09
4.252346e-09 9.408406e-09
4.291732e-09 9.236567e-09
4.331483e-09 9.067867e-09
4.371602e-09 8.902251e-09
4.412093e-09 8.739662e-09
4.452959e-09 8.580044e-09
4.494203e-09 8.423343e-09
4.535829e-09 8.269507e-09
4.577841e-09 8.118482e-09
4.620241e-09 7.970218e-09
4.663035e-09 7.824663e-09
4.706225e-09 7.681770e-09
4.749815e-09 7.541487e-09
4.793808e-09 7.403770e-09
4.838210e-09 7.268569e-09
4.883022e-09 7.135840e-09
4.928250e-09 7.005537e-09
4.973896e-09 6.877616e-09
5.019965e-09 6.752034e-09
5.066461e-09 6.628747e-09
5.113388e-09 6.507714e-09
5.160749e-09 6.388894e-09
5.208549e-09 6.272246e-09
5.256791e-09 6.157731e-09
5.305481e-09 6.045309e-09
5.354621e-09 5.934943e-09
5.404216e-09 5.826595e-09
5.454271e-09 5.720227e-09
5.504790e-09 5.615805e-09
5.555776e-09 5.513292e-09
5.607235e-09 5.412654e-09
5.659170e-09 5.313856e-09
5.711586e-09 5.216865e-09
5.764488e-09 5.121648e-09
5.817880e-09 5.028172e-09
5.871766e-09 4.936405e-09
5.926152e-09 4.846318e-09
5.981041e-09 4.757877e-09
6.036439e-09 4.671055e-09
6.092349e-09 4.585821e-09
6.148778e-09 4.502146e-09
6.205729e-09 4.420001e-09
6.263207e-09 4.339360e-09
6.321218e-09 4.260194e-09
6.379767e-09 4.182476e-09
6.438857e-09 4.106180e-09
6.498495e-09 4.031281e-09
6.558686e-09 3.957752e-09
6.619433e-09 3.885569e-09
6.680744e-09 3.814707e-09
6.742622e-09 3.745142e-09
6.805074e-09 3.676850e-09
6.868104e-09 3.609808e-09
6.931717e-09 3.543994e-09
6.995920e-09 3.479384e-09
7.060718e-09 3.415958e-09
7.126115e-09 3.353693e-09
7.192119e-09 3.292568e-09
7.258734e-09 3.232563e-09
7.325965e-09 3.173656e-09
7.393820e-09 3.115829e-09
7.462303e-09 3.059061e-09
7.531420e-09 3.003333e-09
7.601178e-09 2.948626e-09
7.671581e-09 2.894921e-09
7.742637e-09 2.842201e-09
7.814351e-09 2.790447e-09
7.886729e-09 2.739642e-09
7.959777e-09 2.689768e-09
8.033502e-09 2.640808e-09
8.107910e-09 2.592746e-09
8.183007e-09 2.545566e-09
8.258799e-09 2.499251e-09
8.335294e-09 2.453785e-09
8.412497e-09 2.409154e-09
8.490415e-09 2.365342e-09
8.569055e-09 2.322334e-09
8.648423e-09 2.280115e-09
8.728527e-09 2.238671e-09
8.809372e-09 2.197988e-09
8.890966e-09 2.158052e-09
8.973316e-09 2.118850e-09
9.056428e-09 2.080368e-09
9.140311e-09 2.042593e-09
9.224970e-09 2.005512e-09
9.310413e-09 1.969113e-09
9.396648e-09 1.933382e-09
9.483682e-09 1.898309e-09
9.571522e-09 1.863881e-09
9.660175e-09 1.830087e-09
9.749649e-09 1.796914e-09
9.839952e-09 1.764351e-09
9.931092e-09 1.732389e-09
1.002308e-08 1.701014e-09
1.011591e-08 1.670218e-09
1.020961e-08 1.639989e-09
1.030417e-08 1.610317e-09
1.039961e-08 1.581191e-09
1.049593e-08 1.552603e-09
1.059315e-08 1.524542e-09
1.069126e-08 1.496999e-09
1.079029e-08 1.469964e-09
1.089023e-08 1.443428e-09
1.099110e-08 1.417382e-09
1.109290e-08 1.391817e-09
1.119564e-08 1.366724e-09
1.129934e-08 1.342095e-09
1.140400e-08 1.317922e-09
1.150962e-08 1.294195e-09
1.161623e-08 1.270907e-09
1.172382e-08 1.248051e-09
1.183241e-08 1.225617e-09
1.194200e-08 1.203599e-09
1.205261e-08 1.181988e-09
1.216424e-08 1.160779e-09
1.227691e-08 1.139962e-09
1.239062e-08 1.119531e-09
1.250539e-08 1.099479e-09
1.262121e-08 1.079800e-09
1.273811e-08 1.060485e-09
1.285610e-08 1.041529e-09
1.297517e-08 1.022926e-09
1.309535e-08 1.004668e-09
1.321664e-08 9.867488e-10
1.333906e-08 9.691633e-10
1.346261e-08 9.519047e-10
1.358730e-08 9.349672e-10
1.371315e-08 9.183449e-10
1.384016e-08 9.020320e-10
1.396835e-08 8.860228e-10
1.409773e-08 8.703117e-10
1.422830e-08 8.548933e-10
1.436009e-08 8.397621e-10
1.449310e-08 8.249128e-10
1.462733e-08 8.103402e-10
1.476281e-08 7.960392e-10
1.489955e-08 7.820048e-10
1.503755e-08 7.682320e-10
1.517683e-08 7.547160e-10
1.531740e-08 7.414518e-10
1.545928e-08 7.284350e-10
1.560246e-08 7.156607e-10
1.574698e-08 7.031244e-10
1.589283e-08 6.908218e-10
1.604003e-08 6.787483e-10
1.618860e-08 6.668996e-10
1.633854e-08 6.552715e-10
1.648987e-08 6.438598e-10
1.664260e-08 6.326603e-10
1.679675e-08 6.216690e-10
1.695232e-08 6.108820e-10
1.710934e-08 6.002952e-10
1.726781e-08 5.899049e-10
1.742775e-08 5.797072e-10
1.758917e-08 5.696984e-10
1.775208e-08 5.598749e-10
1.791650e-08 5.502330e-10
1.808245e-08 5.407692e-10
1.824993e-08 5.314801e-10
1.841897e-08 5.223621e-10
1.858957e-08 5.134120e-10
1.876175e-08 5.046264e-10
1.893552e-08 4.960022e-10
1.911091e-08 4.875361e-10
1.928792e-08 4.792250e-10
1.946656e-08 4.710659e-10
1.964687e-08 4.630558e-10
1.982884e-08 4.551917e-10
2.001250e-08 4.474708e-10
2.019786e-08 4.398903e-10
2.038493e-08 4.324474e-10
2.057374e-08 4.251395e-10
2.076430e-08 4.179638e-10
2.095662e-08 4.109180e-10
2.115073e-08 4.039993e-10
2.134663e-08 3.972055e-10
2.154435e-08 3.905342e-10
2.174389e-08 3.839829e-10
2.194529e-08 3.775496e-10
2.214855e-08 3.712319e-10
2.235370e-08 3.650278e-10
2.256074e-08 3.589352e-10
2.276970e-08 3.529521e-10
2.298060e-08 3.470764e-10
2.319345e-08 3.413065e-10
2.340827e-08 3.356403e-10
2.362508e-08 3.300761e-10
2.384390e-08 3.246121e-10
2.406475e-08 3.192468e-10
2.428764e-08 3.139784e-10
2.451260e-08 3.088053e-10
2.473964e-08 3.037261e-10
2.496878e-08 2.987391e-10
2.520005e-08 2.938430e-10
2.543346e-08 2.890362e-10
2.566903e-08 2.843175e-10
2.590678e-08 2.796853e-10
2.614673e-08 2.751385e-10
2.638891e-08 2.706755e-10
2.663333e-08 2.662953e-10
2.688001e-08 2.619963e-10
2.712898e-08 2.577775e-10
2.738025e-08 2.536375e-10
2.763385e-08 2.495751e-10
2.788980e-08 2.455891e-10
2.814812e-08 2.416782e-10
2.840884e-08 2.378412e-10
2.867196e-08 2.340770e-10
2.893753e-08 2.303842e-10
2.920556e-08 2.267616e-10
2.947606e-08 2.232082e-10
2.974908e-08 2.197226e-10
3.002462e-08 2.163036e-10
3.030271e-08 2.129501e-10
3.058338e-08 2.096608e-10
3.086665e-08 2.064345e-10
3.115254e-08 2.032701e-10
3.144108e-08 2.001664e-10
3.173230e-08 1.971220e-10
3.202621e-08 1.941359e-10
3.232284e-08 1.912069e-10
3.262222e-08 1.883338e-10
3.292437e-08 1.855154e-10
3.322933e-08 1.827506e-10
3.353710e-08 1.800382e-10
3.384773e-08 1.773770e-10
3.416123e-08 1.747660e-10
3.447764e-08 1.722039e-10
3.479698e-08 1.696898e-10
3.511928e-08 1.672225e-10
3.544456e-08 1.648009e-10
3.577285e-08 1.624240e-10
3.610419e-08 1.600908e-10
3.643859e-08 1.578002e-10
3.677609e-08 1.555512e-10
3.711672e-08 1.533428e-10
3.746050e-08 1.511742e-10
3.780747e-08 1.490444e-10
3.815765e-08 1.469524e-10
3.851107e-08 1.448975e-10
3.886777e-08 1.428788e-10
3.922777e-08 1.408954e-10
3.959110e-08 1.389466e-10
3.995780e-08 1.370317e-10
4.032790e-08 1.351499e-10
4.070142e-08 1.333005e-10
4.107841e-08 1.314830e-10
4.145888e-08 1.296966e-10
4.184289e-08 1.279409e-10
4.223044e-08 1.262151e-10
4.262159e-08 1.245189e-10
4.301636e-08 1.228518e-10
4.341478e-08 1.212132e-10
4.381690e-08 1.196027e-10
4.422274e-08 1.180198e-10
4.463234e-08 1.164643e-10
4.504573e-08 1.149356e-10
4.546295e-08 1.134335e-10
4.588404e-08 1.119576e-10
4.630903e-08 1.105075e-10
4.673795e-08 1.090829e-10
4.717085e-08 1.076834e-10
4.760775e-08 1.063088e-10
4.804870e-08 1.049587e-10
4.849374e-08 1.036328e-10
4.894290e-08 1.023307e-10
4.939622e-08 1.010521e-10
4.985373e-08 9.979671e-11
5.031549e-08 9.856410e-11
5.078152e-08 9.735393e-11
5.125187e-08 9.616585e-11
5.172657e-08 9.499949e-11
5.220568e-08 9.385445e-11
5.268921e-08 9.273036e-11
5.317723e-08 9.162683e-11
5.366977e-08 9.054347e-11
5.416687e-08 8.947989e-11
5.466857e-08 8.843571e-11
5.517492e-08 8.741055e-11
5.568596e-08 8.640403e-11
5.620174e-08 8.541579e-11
5.672229e-08 8.444548e-11
5.724766e-08 8.349276e-11
5.777790e-08 8.255730e-11
5.831305e-08 8.163880e-11
5.885316e-08 8.073696e-11
5.939827e-08 7.985151e-11
5.994843e-08 7.898219e-11
6.050368e-08 7.812876e-11
6.106408e-08 7.729099e-11
6.162966e-08 7.646867e-11
6.220049e-08 7.566159e-11
6.277660e-08 7.486958e-11
6.335805e-08 7.409244e-11
6.394488e-08 7.333000e-11
6.453715e-08 7.258211e-11
6.513491e-08 7.184859e-11
6.573820e-08 7.112929e-11
6.634708e-08 7.042405e-11
6.696160e-08 6.973270e-11
6.758181e-08 6.905510e-11
6.820777e-08 6.839108e-11
6.883952e-08 6.774048e-11
6.947713e-08 6.710314e-11
7.012064e-08 6.647890e-11
7.077011e-08 6.586758e-11
7.142559e-08 6.526904e-11
7.208715e-08 6.468309e-11
7.275484e-08 6.410959e-11
7.342870e-08 6.354837e-11
7.410882e-08 6.299929e-11
7.479523e-08 6.246217e-11
7.548799e-08 6.193689e-11
7.618718e-08 6.142330e-11
7.689284e-08 6.092127e-11
7.760503e-08 6.043067e-11
7.832383e-08 5.995139e-11
7.904928e-08 5.948330e-11
7.978145e-08 5.902631e-11
8.052040e-08 5.858030e-11
8.126619e-08 5.814520e-11
8.201889e-08 5.772090e-11
8.277857e-08 5.730733e-11
8.354528e-08 5.690440e-11
8.431909e-08 5.651204e-11
8.510007e-08 5.613017e-11
8.588829e-08 5.575872e-11
8.668380e-08 5.539763e-11
8.748668e-08 5.504683e-11
8.829700e-08 5.470625e-11
8.911482e-08 5.437584e-11
8.994022e-08 5.405553e-11
9.077327e-08 5.374528e-11
9.161402e-08 5.344502e-11
9.246257e-08 5.315472e-11
9.331898e-08 5.287431e-11
9.418332e-08 5.260376e-11
9.505566e-08 5.234302e-11
9.593608e-08 5.209204e-11
9.682466e-08 5.185079e-11
9.772147e-08 5.161922e-11
9.862658e-08 5.139730e-11
9.954008e-08 5.118499e-11
1.004620e-07 5.098226e-11
1.013925e-07 5.078907e-11
1.023317e-07 5.060538e-11
1.032795e-07 5.043117e-11
1.042361e-07 5.026641e-11
1.052015e-07 5.011106e-11
1.061759e-07 4.996509e-11
1.071593e-07 4.982846e-11
1.081519e-07 4.970114e-11
1.091536e-07 4.958309e-11
1.101646e-07 4.947425e-11
1.111850e-07 4.937458e-11
1.122148e-07 4.928401e-11
1.132541e-07 4.920246e-11
1.143031e-07 4.912985e-11
1.153618e-07 4.906608e-11
1.164303e-07 4.901104e-11
1.175087e-07 4.896461e-11
1.185971e-07 4.892663e-11
1.196956e-07 4.889696e-11
1.208042e-07 4.887541e-11
1.219231e-07 4.886179e-11
1.230524e-07 4.885587e-11
1.241921e-07 4.885742e-11
1.253424e-07 4.886615e-11
1.265034e-07 4.888175e-11
1.276751e-07 4.890388e-11
1.288576e-07 4.893216e-11
1.300511e-07 4.896615e-11
1.312557e-07 4.900539e-11
1.324714e-07 4.904936e-11
1.336984e-07 4.909751e-11
1.349367e-07 4.914923e-11
1.361865e-07 4.920387e-11
1.374479e-07 4.926075e-11
1.387210e-07 4.931911e-11
1.400058e-07 4.937819e-11
1.413026e-07 4.943717e-11
1.426114e-07 4.949517e-11
1.439323e-07 4.955132e-11
1.452654e-07 4.960468e-11
1.466109e-07 4.965431e-11
1.479688e-07 4.969926e-11
1.493393e-07 4.973857e-11
1.507225e-07 4.977133e-11
1.521186e-07 4.979664e-11
1.535275e-07 4.981364e-11
1.549495e-07 4.982156e-11
1.563847e-07 4.981969e-11
1.578331e-07 4.980742e-11
1.592950e-07 4.978423e-11
1.607704e-07 4.974972e-11
1.622595e-07 4.970360e-11
1.637624e-07 4.964573e-11
1.652792e-07 4.957608e-11
1.668101e-07 4.949478e-11
1.683551e-07 4.940210e-11
1.699144e-07 4.929843e-11
1.714882e-07 4.918431e-11
1.730766e-07 4.906041e-11
1.746796e-07 4.892749e-11
1.762975e-07 4.878641e-11
1.779304e-07 4.863813e-11
1.795785e-07 4.848366e-11
1.812418e-07 4.832404e-11
1.829205e-07 4.816037e-11
1.846147e-07 4.799375e-11
1.863246e-07 4.782527e-11
1.880504e-07 4.765603e-11
1.897922e-07 4.748708e-11
1.915501e-07 4.731946e-11
1.933242e-07 4.715417e-11
1.951148e-07 4.699216e-11
1.969220e-07 4.683432e-11
1.987460e-07 4.668149e-11
2.005868e-07 4.653445e-11
2.024447e-07 4.639390e-11
2.043197e-07 4.626046e-11
2.062122e-07 4.613471e-11
2.081222e-07 4.601712e-11
2.100498e-07 4.590815e-11
2.119953e-07 4.580814e-11
2.139589e-07 4.571741e-11
2.159406e-07 4.563620e-11
2.179407e-07 4.556471e-11
2.199593e-07 4.550304e-11
2.219966e-07 4.545126e-11
2.240528e-07 4.540937e-11
2.261280e-07 4.537732e-11
2.282224e-07 4.535500e-11
2.303363e-07 4.534225e-11
2.324697e-07 4.533887e-11
2.346229e-07 4.534461e-11
2.367960e-07 4.535916e-11
2.389893e-07 4.538218e-11
2.412028e-07 4.541329e-11
2.434369e-07 4.545206e-11
2.456916e-07 4.549802e-11
2.479673e-07 4.555069e-11
2.502640e-07 4.560954e-11
2.525820e-07 4.567402e-11
2.549215e-07 4.574357e-11
2.572826e-07 4.581762e-11
2.596656e-07 4.589558e-11
2.620707e-07 4.597686e-11
2.644980e-07 4.606089e-11
2.669478e-07 4.614711e-11
2.694204e-07 4.623496e-11
2.719158e-07 4.632393e-11
2.744343e-07 4.641354e-11
2.769762e-07 4.650334e-11
2.795416e-07 4.659293e-11
2.821308e-07 4.668197e-11
2.847439e-07 4.677016e-11
2.873813e-07 4.685726e-11
2.900430e-07 4.694310e-11
2.927295e-07 4.702757e-11
2.954408e-07 4.711059e-11
2.981772e-07 4.719218e-11
3.009390e-07 4.727238e-11
3.037264e-07 4.735128e-11
3.065395e-07 4.742905e-11
3.093788e-07 4.750585e-11
3.122443e-07 4.758191e-11
3.151363e-07 4.765748e-11
3.180552e-07 4.773280e-11
3.210011e-07 4.780816e-11
3.239743e-07 4.788383e-11
3.269750e-07 4.796009e-11
3.300035e-07 4.803722e-11
3.330600e-07 4.811548e-11
3.361449e-07 4.819511e-11
3.392583e-07 4.827635e-11
3.424006e-07 4.835940e-11
3.455720e-07 4.844445e-11
3.487727e-07 4.853166e-11
3.520031e-07 4.862116e-11
3.552635e-07 4.871306e-11
3.585540e-07 4.880745e-11
3.618750e-07 4.890440e-11
3.652267e-07 4.900394e-11
3.686095e-07 4.910611e-11
3.720237e-07 4.921090e-11
3.754694e-07 4.931832e-11
3.789471e-07 4.942834e-11
3.824570e-07 4.954094e-11
3.859994e-07 4.965609e-11
3.895746e-07 4.977374e-11
3.931829e-07 4.989387e-11
3.968246e-07 5.001643e-11
4.005001e-07 5.014139e-11
4.042096e-07 5.026872e-11
4.079535e-07 5.039839e-11
4.117320e-07 5.053039e-11
4.155455e-07 5.066469e-11
4.193944e-07 5.080130e-11
4.232789e-07 5.094021e-11
4.271994e-07 5.108144e-11
4.311562e-07 5.122499e-11
4.351497e-07 5.137090e-11
4.391801e-07 5.151918e-11
4.432479e-07 5.166987e-11
4.473533e-07 5.182300e-11
4.514968e-07 5.197863e-11
4.556786e-07 5.213678e-11
4.598992e-07 5.229752e-11
4.641589e-07 5.246089e-11
4.684580e-07 5.262694e-11
4.727970e-07 5.279573e-11
4.771761e-07 5.296732e-11
4.815958e-07 5.314176e-11
4.860564e-07 5.331910e-11
4.905584e-07 5.349941e-11
4.951020e-07 5.368275e-11
4.996877e-07 5.386918e-11
5.043159e-07 5.405875e-11
5.089870e-07 5.425152e-11
5.137014e-07 5.444756e-11
5.184594e-07 5.464693e-11
5.232614e-07 5.484969e-11
5.281080e-07 5.505589e-11
5.329994e-07 5.526561e-11
5.379362e-07 5.547889e-11
5.429186e-07 5.569580e-11
5.479472e-07 5.591640e-11
5.530224e-07 5.614075e-11
5.581446e-07 5.636891e-11
5.633143e-07 5.660094e-11
5.685318e-07 5.683690e-11
5.737976e-07 5.707685e-11
5.791123e-07 5.732085e-11
5.844761e-07 5.756897e-11
5.898896e-07 5.782128e-11
5.953533e-07 5.807783e-11
6.008676e-07 5.833872e-11
6.064329e-07 5.860401e-11
6.120498e-07 5.887379e-11
6.177188e-07 5.914816e-11
6.234402e-07 5.942719e-11
6.292146e-07 5.971100e-11
6.350425e-07 5.999969e-11
6.409244e-07 6.029338e-11
6.468608e-07 6.059217e-11
6.528521e-07 6.089619e-11
6.588990e-07 6.120554e-11
6.650018e-07 6.152035e-11
6.711612e-07 6.184071e-11
6.773776e-07 6.216674e-11
6.836516e-07 6.249852e-11
6.899837e-07 6.283614e-11
6.963745e-07 6.317968e-11
7.028244e-07 6.352921e-11
7.093341e-07 6.388480e-11
7.159041e-07 6.424654e-11
7.225349e-07 6.461451e-11
7.292272e-07 6.498880e-11
7.359814e-07 6.536956e-11
7.427982e-07 6.575694e-11
7.496782e-07 6.615110e-11
7.566219e-07 6.655226e-11
7.636298e-07 6.696063e-11
7.707027e-07 6.737643e-11
7.778411e-07 6.779989e-11
7.850456e-07 6.823119e-11
7.923169e-07 6.867049e-11
7.996555e-07 6.911791e-11
8.070620e-07 6.957352e-11
8.145372e-07 7.003736e-11
8.220816e-07 7.050946e-11
8.296959e-07 7.098990e-11
8.373807e-07 7.147876e-11
8.451366e-07 7.197623e-11
8.529644e-07 7.248260e-11
8.608648e-07 7.299821e-11
8.688383e-07 7.352350e-11
8.768856e-07 7.405886e-11
8.850075e-07 7.460467e-11
8.932046e-07 7.516115e-11
9.014776e-07 7.572840e-11
9.098273e-07 7.630636e-11
9.182543e-07 7.689492e-11
9.267593e-07 7.749402e-11
9.353432e-07 7.810374e-11
9.440065e-07 7.872445e-11
9.527500e-07 7.935673e-11
9.615746e-07 8.000136e-11
9.704809e-07 8.065908e-11
9.794697e-07 8.133039e-11
9.885417e-07 8.201544e-11
9.976978e-07 8.271397e-11
1.006939e-06 8.342557e-11
1.016265e-06 8.414993e-11
1.025678e-06 8.488726e-11
1.035178e-06 8.563840e-11
1.044766e-06 8.640468e-11
1.054443e-06 8.718742e-11
1.064209e-06 8.798733e-11
1.074066e-06 8.880422e-11
1.084014e-06 8.963710e-11
1.094055e-06 9.048500e-11
1.104188e-06 9.134794e-11
1.114415e-06 9.222732e-11
1.124737e-06 9.312552e-11
1.135155e-06 9.404451e-11
1.145669e-06 9.498461e-11
1.156280e-06 9.594425e-11
