# sqrt(Delta_m21^2) [eV]    g_IAXO [GeV^-1]    (varphi = pi/4, w_res = 0.4 MeV)
1.000000e-09 4.576899e-10
1.005318e-09 4.520164e-10
1.010664e-09 4.464213e-10
1.016038e-09 4.409035e-10
1.021441e-09 4.354621e-10
1.026873e-09 4.300961e-10
1.032333e-09 4.248046e-10
1.037823e-09 4.195865e-10
1.043342e-09 4.144411e-10
1.048890e-09 4.093673e-10
1.054468e-09 4.043641e-10
1.060075e-09 3.994307e-10
1.065712e-09 3.945661e-10
1.071380e-09 3.897694e-10
1.077077e-09 3.850396e-10
1.082804e-09 3.803757e-10
1.088562e-09 3.757769e-10
1.094351e-09 3.712421e-10
1.100171e-09 3.667704e-10
1.106021e-09 3.623609e-10
1.111902e-09 3.580126e-10
1.117815e-09 3.537246e-10
1.123759e-09 3.494960e-10
1.129735e-09 3.453258e-10
1.135743e-09 3.412132e-10
1.141782e-09 3.371571e-10
1.147854e-09 3.331568e-10
1.153958e-09 3.292114e-10
1.160094e-09 3.253199e-10
1.166263e-09 3.214814e-10
1.172465e-09 3.176952e-10
1.178700e-09 3.139604e-10
1.184968e-09 3.102761e-10
1.191269e-09 3.066416e-10
1.197604e-09 3.030560e-10
1.203973e-09 2.995186e-10
1.210375e-09 2.960287e-10
1.216812e-09 2.925854e-10
1.223282e-09 2.891882e-10
1.229787e-09 2.858362e-10
1.236327e-09 2.825287e-10
1.242901e-09 2.792652e-10
1.249511e-09 2.760450e-10
1.256155e-09 2.728673e-10
1.262835e-09 2.697316e-10
1.269551e-09 2.666372e-10
1.276302e-09 2.635836e-10
1.283089e-09 2.605701e-10
1.289912e-09 2.575961e-10
1.296771e-09 2.546612e-10
1.303667e-09 2.517648e-10
1.310600e-09 2.489063e-10
1.317569e-09 2.460852e-10
1.324575e-09 2.433010e-10
1.331619e-09 2.405532e-10
1.338700e-09 2.378413e-10
1.345819e-09 2.351647e-10
1.352976e-09 2.325231e-10
1.360170e-09 2.299159e-10
1.367403e-09 2.273426e-10
1.374675e-09 2.248028e-10
1.381985e-09 2.222961e-10
1.389334e-09 2.198221e-10
1.396722e-09 2.173802e-10
1.404149e-09 2.149700e-10
1.411616e-09 2.125912e-10
1.419123e-09 2.102433e-10
1.426669e-09 2.079258e-10
1.434256e-09 2.056384e-10
1.441883e-09 2.033806e-10
1.449550e-09 2.011521e-10
1.457259e-09 1.989524e-10
1.465008e-09 1.967812e-10
1.472798e-09 1.946380e-10
1.480630e-09 1.925226e-10
1.488504e-09 1.904344e-10
1.496419e-09 1.883731e-10
1.504377e-09 1.863384e-10
1.512377e-09 1.843298e-10
1.520419e-09 1.823470e-10
1.528504e-09 1.803896e-10
1.536632e-09 1.784573e-10
1.544804e-09 1.765498e-10
1.553019e-09 1.746666e-10
1.561277e-09 1.728075e-10
1.569580e-09 1.709721e-10
1.577926e-09 1.691601e-10
1.586317e-09 1.673711e-10
1.594753e-09 1.656048e-10
1.603233e-09 1.638610e-10
1.611759e-09 1.621393e-10
1.620329e-09 1.604395e-10
1.628946e-09 1.587612e-10
1.637608e-09 1.571041e-10
1.646317e-09 1.554681e-10
1.655071e-09 1.538527e-10
1.663872e-09 1.522578e-10
1.672720e-09 1.506831e-10
1.681615e-09 1.491283e-10
1.690558e-09 1.475932e-10
1.699548e-09 1.460775e-10
1.708585e-09 1.445810e-10
1.717671e-09 1.431035e-10
1.726805e-09 1.416446e-10
1.735988e-09 1.402042e-10
1.745219e-09 1.387820e-10
1.754500e-09 1.373779e-10
1.763830e-09 1.359915e-10
1.773209e-09 1.346226e-10
1.782639e-09 1.332710e-10
1.792118e-09 1.319365e-10
1.801648e-09 1.306189e-10
1.811229e-09 1.293179e-10
1.820860e-09 1.280333e-10
1.830543e-09 1.267648e-10
1.840278e-09 1.255124e-10
1.850064e-09 1.242757e-10
1.859902e-09 1.230546e-10
1.869792e-09 1.218488e-10
1.879735e-09 1.206581e-10
1.889731e-09 1.194824e-10
1.899780e-09 1.183214e-10
1.909883e-09 1.171750e-10
1.920039e-09 1.160430e-10
1.930249e-09 1.149251e-10
1.940513e-09 1.138212e-10
1.950833e-09 1.127312e-10
1.961207e-09 1.116548e-10
1.971636e-09 1.105920e-10
1.982120e-09 1.095424e-10
1.992661e-09 1.085060e-10
2.003257e-09 1.074826e-10
2.013910e-09 1.064721e-10
2.024619e-09 1.054742e-10
2.035385e-09 1.044889e-10
2.046209e-09 1.035159e-10
2.057090e-09 1.025552e-10
2.068029e-09 1.016065e-10
2.079026e-09 1.006697e-10
2.090082e-09 9.974473e-11
2.101196e-09 9.883135e-11
2.112370e-09 9.792943e-11
2.123603e-09 9.703884e-11
2.134896e-09 9.615944e-11
2.146248e-09 9.529106e-11
2.157662e-09 9.443359e-11
2.169135e-09 9.358687e-11
2.180670e-09 9.275078e-11
2.192266e-09 9.192518e-11
2.203924e-09 9.110993e-11
2.215644e-09 9.030492e-11
2.227426e-09 8.951002e-11
2.239271e-09 8.872509e-11
2.251179e-09 8.795002e-11
2.263150e-09 8.718470e-11
2.275185e-09 8.642899e-11
2.287284e-09 8.568279e-11
2.299447e-09 8.494597e-11
2.311674e-09 8.421844e-11
2.323967e-09 8.350007e-11
2.336325e-09 8.279076e-11
2.348749e-09 8.209040e-11
2.361239e-09 8.139888e-11
2.373796e-09 8.071609e-11
2.386419e-09 8.004193e-11
2.399109e-09 7.937630e-11
2.411867e-09 7.871909e-11
2.424692e-09 7.807020e-11
2.437586e-09 7.742954e-11
2.450549e-09 7.679700e-11
2.463580e-09 7.617249e-11
2.476681e-09 7.555590e-11
2.489851e-09 7.494715e-11
2.503091e-09 7.434613e-11
2.516402e-09 7.375276e-11
2.529783e-09 7.316695e-11
2.543236e-09 7.258860e-11
2.556760e-09 7.201763e-11
2.570356e-09 7.145396e-11
2.584025e-09 7.089749e-11
2.597766e-09 7.034814e-11
2.611580e-09 6.980584e-11
2.625468e-09 6.927049e-11
2.639429e-09 6.874203e-11
2.653465e-09 6.822038e-11
2.667575e-09 6.770545e-11
2.681761e-09 6.719718e-11
2.696021e-09 6.669548e-11
2.710358e-09 6.620029e-11
2.724771e-09 6.571152e-11
2.739260e-09 6.522911e-11
2.753827e-09 6.475299e-11
2.768471e-09 6.428308e-11
2.783193e-09 6.381932e-11
2.797993e-09 6.336163e-11
2.812872e-09 6.290995e-11
2.827830e-09 6.246420e-11
2.842868e-09 6.202434e-11
2.857985e-09 6.159028e-11
2.873183e-09 6.116196e-11
2.888462e-09 6.073933e-11
2.903822e-09 6.032233e-11
2.919264e-09 5.991089e-11
2.934788e-09 5.950495e-11
2.950394e-09 5.910446e-11
2.966083e-09 5.870936e-11
2.981856e-09 5.831959e-11
2.997713e-09 5.793510e-11
3.013654e-09 5.755583e-11
3.029679e-09 5.718174e-11
3.045790e-09 5.681276e-11
3.061987e-09 5.644884e-11
3.078270e-09 5.608993e-11
3.094639e-09 5.573598e-11
3.111095e-09 5.538695e-11
3.127639e-09 5.504277e-11
3.144271e-09 5.470340e-11
3.160992e-09 5.436880e-11
3.177801e-09 5.403891e-11
3.194699e-09 5.371368e-11
3.211688e-09 5.339309e-11
3.228767e-09 5.307707e-11
3.245936e-09 5.276559e-11
3.263197e-09 5.245860e-11
3.280550e-09 5.215605e-11
3.297995e-09 5.185792e-11
3.315533e-09 5.156416e-11
3.333164e-09 5.127472e-11
3.350889e-09 5.098958e-11
3.368708e-09 5.070868e-11
3.386622e-09 5.043199e-11
3.404631e-09 5.015947e-11
3.422735e-09 4.989109e-11
3.440937e-09 4.962681e-11
3.459234e-09 4.936659e-11
3.477630e-09 4.911040e-11
3.496123e-09 4.885820e-11
3.514714e-09 4.860996e-11
3.533404e-09 4.836564e-11
3.552194e-09 4.812522e-11
3.571083e-09 4.788865e-11
3.590073e-09 4.765592e-11
3.609164e-09 4.742698e-11
3.628357e-09 4.720182e-11
3.647651e-09 4.698039e-11
3.667049e-09 4.676267e-11
3.686549e-09 4.654864e-11
3.706153e-09 4.633826e-11
3.725861e-09 4.613150e-11
3.745674e-09 4.592835e-11
3.765593e-09 4.572876e-11
3.785617e-09 4.553273e-11
3.805748e-09 4.534022e-11
3.825986e-09 4.515120e-11
3.846331e-09 4.496566e-11
3.866785e-09 4.478357e-11
3.887347e-09 4.460490e-11
3.908019e-09 4.442964e-11
3.928801e-09 4.425776e-11
3.949693e-09 4.408924e-11
3.970696e-09 4.392406e-11
3.991811e-09 4.376221e-11
4.013039e-09 4.360365e-11
4.034379e-09 4.344837e-11
4.055832e-09 4.329636e-11
4.077400e-09 4.314759e-11
4.099083e-09 4.300204e-11
4.120880e-09 4.285969e-11
4.142794e-09 4.272054e-11
4.164824e-09 4.258456e-11
4.186971e-09 4.245174e-11
4.209237e-09 4.232205e-11
4.231620e-09 4.219549e-11
4.254123e-09 4.207204e-11
4.276745e-09 4.195169e-11
4.299487e-09 4.183441e-11
4.322351e-09 4.172020e-11
4.345336e-09 4.160904e-11
4.368443e-09 4.150092e-11
4.391673e-09 4.139583e-11
4.415027e-09 4.129375e-11
4.438505e-09 4.119467e-11
4.462107e-09 4.109858e-11
4.485835e-09 4.100545e-11
4.509690e-09 4.091530e-11
4.533671e-09 4.082809e-11
4.557780e-09 4.074382e-11
4.582017e-09 4.066248e-11
4.606383e-09 4.058405e-11
4.630878e-09 4.050852e-11
4.655504e-09 4.043589e-11
4.680260e-09 4.036614e-11
4.705148e-09 4.029925e-11
4.730169e-09 4.023522e-11
4.755323e-09 4.017403e-11
4.780610e-09 4.011567e-11
4.806032e-09 4.006013e-11
4.831589e-09 4.000739e-11
4.857282e-09 3.995744e-11
4.883112e-09 3.991027e-11
4.909079e-09 3.986585e-11
4.935184e-09 3.982418e-11
4.961428e-09 3.978523e-11
4.987811e-09 3.974900e-11
5.014335e-09 3.971546e-11
5.041000e-09 3.968458e-11
5.067806e-09 3.965636e-11
5.094755e-09 3.963077e-11
5.121848e-09 3.960778e-11
5.149084e-09 3.958737e-11
5.176466e-09 3.956951e-11
5.203993e-09 3.955417e-11
5.231666e-09 3.954133e-11
5.259486e-09 3.953095e-11
5.287455e-09 3.952299e-11
5.315572e-09 3.951741e-11
5.343839e-09 3.951418e-11
5.372256e-09 3.951325e-11
5.400824e-09 3.951457e-11
5.429544e-09 3.951810e-11
5.458416e-09 3.952377e-11
5.487443e-09 3.953154e-11
5.516623e-09 3.954133e-11
5.545959e-09 3.955308e-11
5.575451e-09 3.956673e-11
5.605100e-09 3.958219e-11
5.634906e-09 3.959939e-11
5.664871e-09 3.961823e-11
5.694995e-09 3.963863e-11
5.725279e-09 3.966048e-11
5.755725e-09 3.968369e-11
5.786332e-09 3.970814e-11
5.817102e-09 3.973371e-11
5.848035e-09 3.976027e-11
5.879134e-09 3.978771e-11
5.910397e-09 3.981586e-11
5.941827e-09 3.984459e-11
5.973424e-09 3.987375e-11
6.005189e-09 3.990315e-11
6.037123e-09 3.993264e-11
6.069226e-09 3.996203e-11
6.101501e-09 3.999113e-11
6.133947e-09 4.001974e-11
6.166565e-09 4.004765e-11
6.199357e-09 4.007465e-11
6.232324e-09 4.010050e-11
6.265465e-09 4.012499e-11
6.298783e-09 4.014786e-11
6.332278e-09 4.016887e-11
6.365952e-09 4.018777e-11
6.399804e-09 4.020428e-11
6.433836e-09 4.021815e-11
6.468049e-09 4.022909e-11
6.502445e-09 4.023684e-11
6.537023e-09 4.024111e-11
6.571785e-09 4.024163e-11
6.606732e-09 4.023810e-11
6.641864e-09 4.023026e-11
6.677184e-09 4.021783e-11
6.712691e-09 4.020053e-11
6.748387e-09 4.017811e-11
6.784273e-09 4.015031e-11
6.820350e-09 4.011688e-11
6.856619e-09 4.007761e-11
6.893080e-09 4.003227e-11
6.929736e-09 3.998069e-11
6.966586e-09 3.992268e-11
7.003632e-09 3.985812e-11
7.040876e-09 3.978688e-11
7.078317e-09 3.970890e-11
7.115957e-09 3.962412e-11
7.153798e-09 3.953255e-11
7.191840e-09 3.943422e-11
7.230084e-09 3.932925e-11
7.268531e-09 3.921776e-11
7.307183e-09 3.909999e-11
7.346041e-09 3.897623e-11
7.385105e-09 3.884688e-11
7.424377e-09 3.871247e-11
7.463857e-09 3.857361e-11
7.503548e-09 3.843094e-11
7.543450e-09 3.828514e-11
7.583564e-09 3.813689e-11
7.623891e-09 3.798688e-11
7.664432e-09 3.783577e-11
7.705190e-09 3.768421e-11
7.746164e-09 3.753284e-11
7.787355e-09 3.738225e-11
7.828766e-09 3.723302e-11
7.870397e-09 3.708569e-11
7.912250e-09 3.694075e-11
7.954325e-09 3.679868e-11
7.996624e-09 3.665990e-11
8.039148e-09 3.652482e-11
8.081897e-09 3.639378e-11
8.124875e-09 3.626711e-11
8.168080e-09 3.614509e-11
8.211516e-09 3.602796e-11
8.255182e-09 3.591594e-11
8.299081e-09 3.580921e-11
8.343213e-09 3.570791e-11
8.387580e-09 3.561214e-11
8.432183e-09 3.552200e-11
8.477022e-09 3.543752e-11
8.522101e-09 3.535873e-11
8.567419e-09 3.528562e-11
8.612978e-09 3.521816e-11
8.658779e-09 3.515627e-11
8.704824e-09 3.509988e-11
8.751114e-09 3.504886e-11
8.797650e-09 3.500309e-11
8.844433e-09 3.496240e-11
8.891465e-09 3.492661e-11
8.938747e-09 3.489551e-11
8.986281e-09 3.486890e-11
9.034068e-09 3.484654e-11
9.082108e-09 3.482816e-11
9.130404e-09 3.481351e-11
9.178957e-09 3.480230e-11
9.227768e-09 3.479425e-11
9.276839e-09 3.478905e-11
9.326170e-09 3.478641e-11
9.375764e-09 3.478602e-11
9.425622e-09 3.478757e-11
9.475744e-09 3.479075e-11
9.526134e-09 3.479528e-11
9.576791e-09 3.480086e-11
9.627717e-09 3.480721e-11
9.678915e-09 3.481407e-11
9.730384e-09 3.482120e-11
9.782128e-09 3.482838e-11
9.834146e-09 3.483541e-11
9.886441e-09 3.484213e-11
9.939015e-09 3.484839e-11
9.991867e-09 3.485410e-11
1.004500e-08 3.485920e-11
1.009842e-08 3.486365e-11
1.015212e-08 3.486748e-11
1.020610e-08 3.487072e-11
1.026038e-08 3.487347e-11
1.031494e-08 3.487588e-11
1.036979e-08 3.487811e-11
1.042493e-08 3.488038e-11
1.048037e-08 3.488295e-11
1.053610e-08 3.488609e-11
1.059213e-08 3.489014e-11
1.064846e-08 3.489545e-11
1.070508e-08 3.490238e-11
1.076201e-08 3.491134e-11
1.081924e-08 3.492274e-11
1.087677e-08 3.493701e-11
1.093461e-08 3.495458e-11
1.099276e-08 3.497587e-11
1.105121e-08 3.500131e-11
1.110998e-08 3.503132e-11
1.116906e-08 3.506627e-11
1.122845e-08 3.510654e-11
1.128816e-08 3.515245e-11
1.134819e-08 3.520428e-11
1.140854e-08 3.526227e-11
1.146921e-08 3.532656e-11
1.153020e-08 3.539727e-11
1.159151e-08 3.547440e-11
1.165315e-08 3.555787e-11
1.171512e-08 3.564750e-11
1.177742e-08 3.574300e-11
1.184004e-08 3.584396e-11
1.190301e-08 3.594983e-11
1.196630e-08 3.605992e-11
1.202994e-08 3.617341e-11
1.209391e-08 3.628933e-11
1.215822e-08 3.640656e-11
1.222287e-08 3.652385e-11
1.228787e-08 3.663981e-11
1.235321e-08 3.675296e-11
1.241891e-08 3.686176e-11
1.248495e-08 3.696462e-11
1.255134e-08 3.706000e-11
1.261808e-08 3.714649e-11
1.268518e-08 3.722292e-11
1.275264e-08 3.728859e-11
1.282045e-08 3.734349e-11
1.288863e-08 3.738837e-11
1.295717e-08 3.742441e-11
1.302607e-08 3.745305e-11
1.309534e-08 3.747583e-11
1.316497e-08 3.749430e-11
1.323498e-08 3.750993e-11
1.330536e-08 3.752412e-11
1.337612e-08 3.753809e-11
1.344725e-08 3.755290e-11
1.351875e-08 3.756939e-11
1.359064e-08 3.758823e-11
1.366291e-08 3.760983e-11
1.373557e-08 3.763442e-11
1.380861e-08 3.766201e-11
1.388204e-08 3.769244e-11
1.395586e-08 3.772538e-11
1.403008e-08 3.776036e-11
1.410468e-08 3.779682e-11
1.417969e-08 3.783412e-11
1.425509e-08 3.787161e-11
1.433090e-08 3.790863e-11
1.440710e-08 3.794458e-11
1.448372e-08 3.797896e-11
1.456074e-08 3.801138e-11
1.463817e-08 3.804159e-11
1.471601e-08 3.806955e-11
1.479426e-08 3.809536e-11
1.487293e-08 3.811932e-11
1.495202e-08 3.814191e-11
1.503153e-08 3.816376e-11
1.511147e-08 3.818561e-11
1.519183e-08 3.820826e-11
1.527261e-08 3.823255e-11
1.535383e-08 3.825924e-11
1.543547e-08 3.828903e-11
1.551756e-08 3.832239e-11
1.560007e-08 3.835954e-11
1.568303e-08 3.840042e-11
1.576643e-08 3.844458e-11
1.585027e-08 3.849113e-11
1.593456e-08 3.853879e-11
1.601929e-08 3.858584e-11
1.610448e-08 3.863021e-11
1.619012e-08 3.866956e-11
1.627621e-08 3.870152e-11
1.636276e-08 3.872397e-11
1.644978e-08 3.873560e-11
1.653725e-08 3.873668e-11
1.662519e-08 3.872919e-11
1.671360e-08 3.871609e-11
1.680248e-08 3.870052e-11
1.689183e-08 3.868533e-11
1.698165e-08 3.867287e-11
1.707196e-08 3.866487e-11
1.716274e-08 3.866241e-11
1.725401e-08 3.866590e-11
1.734576e-08 3.867517e-11
1.743800e-08 3.868958e-11
1.753073e-08 3.870813e-11
1.762395e-08 3.872960e-11
1.771767e-08 3.875278e-11
1.781189e-08 3.877653e-11
1.790661e-08 3.880000e-11
1.800183e-08 3.882272e-11
1.809756e-08 3.884465e-11
1.819380e-08 3.886619e-11
1.829055e-08 3.888818e-11
1.838781e-08 3.891172e-11
1.848559e-08 3.893810e-11
1.858389e-08 3.896851e-11
1.868272e-08 3.900387e-11
1.878206e-08 3.904461e-11
1.888194e-08 3.909039e-11
1.898235e-08 3.914004e-11
1.908329e-08 3.919142e-11
1.918477e-08 3.924158e-11
1.928679e-08 3.928699e-11
1.938935e-08 3.932426e-11
1.949246e-08 3.935141e-11
1.959612e-08 3.936924e-11
1.970032e-08 3.938119e-11
1.980508e-08 3.939155e-11
1.991040e-08 3.940407e-11
2.001628e-08 3.942137e-11
2.012272e-08 3.944475e-11
2.022973e-08 3.947429e-11
2.033730e-08 3.950905e-11
2.044545e-08 3.954743e-11
2.055417e-08 3.958762e-11
2.066347e-08 3.962799e-11
2.077336e-08 3.966750e-11
2.088382e-08 3.970586e-11
2.099488e-08 3.974367e-11
2.110652e-08 3.978226e-11
2.121876e-08 3.982341e-11
2.133160e-08 3.986879e-11
2.144503e-08 3.991952e-11
2.155907e-08 3.997556e-11
2.167371e-08 4.003534e-11
2.178897e-08 4.009564e-11
2.190484e-08 4.015190e-11
2.202132e-08 4.019962e-11
2.213842e-08 4.023667e-11
2.225615e-08 4.026534e-11
2.237450e-08 4.029086e-11
2.249348e-08 4.031839e-11
2.261309e-08 4.035118e-11
2.273334e-08 4.039024e-11
2.285423e-08 4.043468e-11
2.297577e-08 4.048242e-11
2.309794e-08 4.053110e-11
2.322077e-08 4.057895e-11
2.334425e-08 4.062539e-11
2.346839e-08 4.067126e-11
2.359319e-08 4.071850e-11
2.371865e-08 4.076942e-11
2.384478e-08 4.082566e-11
2.397158e-08 4.088708e-11
2.409905e-08 4.095103e-11
2.422721e-08 4.101248e-11
2.435604e-08 4.106570e-11
2.448556e-08 4.110809e-11
2.461576e-08 4.114292e-11
2.474666e-08 4.117681e-11
2.487826e-08 4.121507e-11
2.501056e-08 4.125969e-11
2.514355e-08 4.130966e-11
2.527726e-08 4.136226e-11
2.541168e-08 4.141478e-11
2.554681e-08 4.146590e-11
2.568266e-08 4.151633e-11
2.581923e-08 4.156851e-11
2.595653e-08 4.162512e-11
2.609456e-08 4.168730e-11
2.623332e-08 4.175296e-11
2.637283e-08 4.181647e-11
2.651307e-08 4.187135e-11
2.665406e-08 4.191589e-11
2.679580e-08 4.195550e-11
2.693829e-08 4.199755e-11
2.708154e-08 4.204586e-11
2.722555e-08 4.209976e-11
2.737033e-08 4.215607e-11
2.751588e-08 4.221182e-11
2.766220e-08 4.226637e-11
2.780930e-08 4.232179e-11
2.795718e-08 4.238128e-11
2.810585e-08 4.244633e-11
2.825530e-08 4.251414e-11
2.840556e-08 4.257775e-11
2.855661e-08 4.263148e-11
2.870847e-08 4.267761e-11
2.886113e-08 4.272423e-11
2.901461e-08 4.277679e-11
2.916890e-08 4.283494e-11
2.932401e-08 4.289502e-11
2.947994e-08 4.295420e-11
2.963671e-08 4.301304e-11
2.979431e-08 4.307483e-11
2.995275e-08 4.314205e-11
3.011203e-08 4.321230e-11
3.027215e-08 4.327815e-11
3.043313e-08 4.333443e-11
3.059497e-08 4.338543e-11
3.075766e-08 4.343957e-11
3.092122e-08 4.349998e-11
3.108565e-08 4.356365e-11
3.125096e-08 4.362698e-11
3.141714e-08 4.369001e-11
3.158421e-08 4.375624e-11
3.175216e-08 4.382765e-11
3.192101e-08 4.389989e-11
3.209076e-08 4.396509e-11
3.226141e-08 4.402245e-11
3.243297e-08 4.408004e-11
3.260543e-08 4.414348e-11
3.277882e-08 4.421074e-11
3.295313e-08 4.427790e-11
3.312836e-08 4.434524e-11
3.330453e-08 4.441646e-11
3.348164e-08 4.449181e-11
3.365968e-08 4.456444e-11
3.383867e-08 4.462894e-11
3.401862e-08 4.469049e-11
3.419952e-08 4.475677e-11
3.438138e-08 4.482739e-11
3.456421e-08 4.489831e-11
3.474801e-08 4.496979e-11
3.493279e-08 4.504536e-11
3.511856e-08 4.512349e-11
3.530531e-08 4.519657e-11
3.549305e-08 4.526321e-11
3.568179e-08 4.533135e-11
3.587154e-08 4.540454e-11
3.606229e-08 4.547920e-11
3.625406e-08 4.555422e-11
3.644685e-08 4.563284e-11
3.664066e-08 4.571365e-11
3.683551e-08 4.578943e-11
3.703139e-08 4.586029e-11
3.722831e-08 4.593394e-11
3.742628e-08 4.601163e-11
3.762530e-08 4.608992e-11
3.782538e-08 4.617017e-11
3.802653e-08 4.625378e-11
3.822874e-08 4.633490e-11
3.843203e-08 4.641062e-11
3.863640e-08 4.648766e-11
3.884186e-08 4.656868e-11
3.904841e-08 4.665070e-11
3.925606e-08 4.673488e-11
3.946481e-08 4.682155e-11
3.967467e-08 4.690478e-11
3.988565e-08 4.698447e-11
4.009775e-08 4.706705e-11
4.031098e-08 4.715235e-11
4.052534e-08 4.723889e-11
4.074084e-08 4.732823e-11
4.095749e-08 4.741652e-11
4.117529e-08 4.750078e-11
4.139425e-08 4.758651e-11
4.161437e-08 4.767525e-11
4.183566e-08 4.776545e-11
4.205813e-08 4.785812e-11
4.228179e-08 4.794961e-11
4.250663e-08 4.803799e-11
4.273267e-08 4.812835e-11
4.295991e-08 4.822124e-11
4.318836e-08 4.831598e-11
4.341802e-08 4.841222e-11
4.364890e-08 4.850596e-11
4.388101e-08 4.859902e-11
4.411436e-08 4.869489e-11
4.434895e-08 4.879269e-11
4.458478e-08 4.889237e-11
4.482187e-08 4.899083e-11
4.506022e-08 4.908788e-11
4.529984e-08 4.918731e-11
4.554073e-08 4.928889e-11
4.578290e-08 4.939220e-11
4.602636e-08 4.949458e-11
4.627112e-08 4.959603e-11
4.651717e-08 4.969983e-11
4.676454e-08 4.980577e-11
4.701322e-08 4.991297e-11
4.726322e-08 5.001900e-11
4.751455e-08 5.012533e-11
4.776722e-08 5.023414e-11
4.802124e-08 5.034484e-11
4.827660e-08 5.045575e-11
4.853332e-08 5.056590e-11
4.879141e-08 5.067793e-11
4.905086e-08 5.079219e-11
4.931170e-08 5.090742e-11
4.957393e-08 5.102205e-11
4.983755e-08 5.113790e-11
5.010257e-08 5.125610e-11
5.036900e-08 5.137553e-11
5.063685e-08 5.149471e-11
5.090612e-08 5.161495e-11
5.117682e-08 5.173751e-11
5.144897e-08 5.186130e-11
5.172256e-08 5.198507e-11
5.199760e-08 5.211017e-11
5.227411e-08 5.223749e-11
5.255209e-08 5.236581e-11
5.283155e-08 5.249438e-11
5.311249e-08 5.262481e-11
5.339493e-08 5.275716e-11
5.367887e-08 5.289022e-11
5.396431e-08 5.302415e-11
5.425128e-08 5.316024e-11
5.453977e-08 5.329779e-11
5.482980e-08 5.343597e-11
5.512137e-08 5.357594e-11
5.541449e-08 5.371780e-11
5.570917e-08 5.386065e-11
5.600541e-08 5.400483e-11
5.630323e-08 5.415110e-11
5.660264e-08 5.429869e-11
5.690363e-08 5.444749e-11
5.720623e-08 5.459837e-11
5.751044e-08 5.475083e-11
5.781626e-08 5.490453e-11
