# sqrt(Delta_m21^2) [eV]    g_IAXO [GeV^-1]    (varphi = pi/4, w_res = 0.4 MeV, delta = 0)
1.000000e-09 4.621568e-10
1.005318e-09 4.564802e-10
1.010664e-09 4.508820e-10
1.016038e-09 4.453613e-10
1.021441e-09 4.399170e-10
1.026873e-09 4.345483e-10
1.032333e-09 4.292542e-10
1.037823e-09 4.240337e-10
1.043342e-09 4.188859e-10
1.048890e-09 4.138098e-10
1.054468e-09 4.088046e-10
1.060075e-09 4.038693e-10
1.065712e-09 3.990029e-10
1.071380e-09 3.942045e-10
1.077077e-09 3.894732e-10
1.082804e-09 3.848080e-10
1.088562e-09 3.802079e-10
1.094351e-09 3.756721e-10
1.100171e-09 3.711995e-10
1.106021e-09 3.667892e-10
1.111902e-09 3.624403e-10
1.117815e-09 3.581518e-10
1.123759e-09 3.539228e-10
1.129735e-09 3.497525e-10
1.135743e-09 3.456398e-10
1.141782e-09 3.415838e-10
1.147854e-09 3.375837e-10
1.153958e-09 3.336386e-10
1.160094e-09 3.297475e-10
1.166263e-09 3.259097e-10
1.172465e-09 3.221241e-10
1.178700e-09 3.183901e-10
1.184968e-09 3.147068e-10
1.191269e-09 3.110733e-10
1.197604e-09 3.074889e-10
1.203973e-09 3.039527e-10
1.210375e-09 3.004641e-10
1.216812e-09 2.970224e-10
1.223282e-09 2.936267e-10
1.229787e-09 2.902763e-10
1.236327e-09 2.869707e-10
1.242901e-09 2.837090e-10
1.249511e-09 2.804907e-10
1.256155e-09 2.773151e-10
1.262835e-09 2.741815e-10
1.269551e-09 2.710894e-10
1.276302e-09 2.680381e-10
1.283089e-09 2.650270e-10
1.289912e-09 2.620556e-10
1.296771e-09 2.591233e-10
1.303667e-09 2.562295e-10
1.310600e-09 2.533738e-10
1.317569e-09 2.505556e-10
1.324575e-09 2.477744e-10
1.331619e-09 2.450297e-10
1.338700e-09 2.423209e-10
1.345819e-09 2.396476e-10
1.352976e-09 2.370093e-10
1.360170e-09 2.344055e-10
1.367403e-09 2.318358e-10
1.374675e-09 2.292997e-10
1.381985e-09 2.267968e-10
1.389334e-09 2.243265e-10
1.396722e-09 2.218885e-10
1.404149e-09 2.194824e-10
1.411616e-09 2.171077e-10
1.419123e-09 2.147640e-10
1.426669e-09 2.124509e-10
1.434256e-09 2.101679e-10
1.441883e-09 2.079147e-10
1.449550e-09 2.056908e-10
1.457259e-09 2.034959e-10
1.465008e-09 2.013295e-10
1.472798e-09 1.991913e-10
1.480630e-09 1.970809e-10
1.488504e-09 1.949979e-10
1.496419e-09 1.929419e-10
1.504377e-09 1.909126e-10
1.512377e-09 1.889095e-10
1.520419e-09 1.869323e-10
1.528504e-09 1.849806e-10
1.536632e-09 1.830541e-10
1.544804e-09 1.811525e-10
1.553019e-09 1.792754e-10
1.561277e-09 1.774224e-10
1.569580e-09 1.755932e-10
1.577926e-09 1.737876e-10
1.586317e-09 1.720051e-10
1.594753e-09 1.702454e-10
1.603233e-09 1.685083e-10
1.611759e-09 1.667934e-10
1.620329e-09 1.651005e-10
1.628946e-09 1.634292e-10
1.637608e-09 1.617793e-10
1.646317e-09 1.601506e-10
1.655071e-09 1.585426e-10
1.663872e-09 1.569552e-10
1.672720e-09 1.553881e-10
1.681615e-09 1.538411e-10
1.690558e-09 1.523139e-10
1.699548e-09 1.508062e-10
1.708585e-09 1.493178e-10
1.717671e-09 1.478485e-10
1.726805e-09 1.463980e-10
1.735988e-09 1.449662e-10
1.745219e-09 1.435527e-10
1.754500e-09 1.421573e-10
1.763830e-09 1.407798e-10
1.773209e-09 1.394200e-10
1.782639e-09 1.380777e-10
1.792118e-09 1.367525e-10
1.801648e-09 1.354444e-10
1.811229e-09 1.341531e-10
1.820860e-09 1.328783e-10
1.830543e-09 1.316198e-10
1.840278e-09 1.303774e-10
1.850064e-09 1.291510e-10
1.859902e-09 1.279403e-10
1.869792e-09 1.267450e-10
1.879735e-09 1.255651e-10
1.889731e-09 1.244002e-10
1.899780e-09 1.232503e-10
1.909883e-09 1.221150e-10
1.920039e-09 1.209943e-10
1.930249e-09 1.198880e-10
1.940513e-09 1.187958e-10
1.950833e-09 1.177176e-10
1.961207e-09 1.166532e-10
1.971636e-09 1.156025e-10
1.982120e-09 1.145653e-10
1.992661e-09 1.135414e-10
2.003257e-09 1.125307e-10
2.013910e-09 1.115331e-10
2.024619e-09 1.105483e-10
2.035385e-09 1.095762e-10
2.046209e-09 1.086167e-10
2.057090e-09 1.076695e-10
2.068029e-09 1.067347e-10
2.079026e-09 1.058119e-10
2.090082e-09 1.049011e-10
2.101196e-09 1.040021e-10
2.112370e-09 1.031148e-10
2.123603e-09 1.022391e-10
2.134896e-09 1.013746e-10
2.146248e-09 1.005215e-10
2.157662e-09 9.967943e-11
2.169135e-09 9.884834e-11
2.180670e-09 9.802809e-11
2.192266e-09 9.721855e-11
2.203924e-09 9.641958e-11
2.215644e-09 9.563106e-11
2.227426e-09 9.485287e-11
2.239271e-09 9.408488e-11
2.251179e-09 9.332698e-11
2.263150e-09 9.257905e-11
2.275185e-09 9.184097e-11
2.287284e-09 9.111262e-11
2.299447e-09 9.039391e-11
2.311674e-09 8.968472e-11
2.323967e-09 8.898493e-11
2.336325e-09 8.829444e-11
2.348749e-09 8.761316e-11
2.361239e-09 8.694096e-11
2.373796e-09 8.627775e-11
2.386419e-09 8.562342e-11
2.399109e-09 8.497788e-11
2.411867e-09 8.434103e-11
2.424692e-09 8.371276e-11
2.437586e-09 8.309298e-11
2.450549e-09 8.248159e-11
2.463580e-09 8.187850e-11
2.476681e-09 8.128362e-11
2.489851e-09 8.069684e-11
2.503091e-09 8.011808e-11
2.516402e-09 7.954725e-11
2.529783e-09 7.898426e-11
2.543236e-09 7.842902e-11
2.556760e-09 7.788145e-11
2.570356e-09 7.734147e-11
2.584025e-09 7.680900e-11
2.597766e-09 7.628394e-11
2.611580e-09 7.576622e-11
2.625468e-09 7.525578e-11
2.639429e-09 7.475251e-11
2.653465e-09 7.425637e-11
2.667575e-09 7.376726e-11
2.681761e-09 7.328512e-11
2.696021e-09 7.280988e-11
2.710358e-09 7.234145e-11
2.724771e-09 7.187978e-11
2.739260e-09 7.142479e-11
2.753827e-09 7.097641e-11
2.768471e-09 7.053457e-11
2.783193e-09 7.009921e-11
2.797993e-09 6.967025e-11
2.812872e-09 6.924764e-11
2.827830e-09 6.883130e-11
2.842868e-09 6.842118e-11
2.857985e-09 6.801720e-11
2.873183e-09 6.761931e-11
2.888462e-09 6.722745e-11
2.903822e-09 6.684156e-11
2.919264e-09 6.646157e-11
2.934788e-09 6.608744e-11
2.950394e-09 6.571911e-11
2.966083e-09 6.535651e-11
2.981856e-09 6.499959e-11
2.997713e-09 6.464830e-11
3.013654e-09 6.430259e-11
3.029679e-09 6.396240e-11
3.045790e-09 6.362767e-11
3.061987e-09 6.329835e-11
3.078270e-09 6.297440e-11
3.094639e-09 6.265575e-11
3.111095e-09 6.234236e-11
3.127639e-09 6.203418e-11
3.144271e-09 6.173115e-11
3.160992e-09 6.143322e-11
3.177801e-09 6.114035e-11
3.194699e-09 6.085249e-11
3.211688e-09 6.056958e-11
3.228767e-09 6.029159e-11
3.245936e-09 6.001846e-11
3.263197e-09 5.975014e-11
3.280550e-09 5.948659e-11
3.297995e-09 5.922776e-11
3.315533e-09 5.897361e-11
3.333164e-09 5.872409e-11
3.350889e-09 5.847915e-11
3.368708e-09 5.823875e-11
3.386622e-09 5.800283e-11
3.404631e-09 5.777136e-11
3.422735e-09 5.754428e-11
3.440937e-09 5.732156e-11
3.459234e-09 5.710313e-11
3.477630e-09 5.688896e-11
3.496123e-09 5.667901e-11
3.514714e-09 5.647322e-11
3.533404e-09 5.627154e-11
3.552194e-09 5.607394e-11
3.571083e-09 5.588035e-11
3.590073e-09 5.569074e-11
3.609164e-09 5.550506e-11
3.628357e-09 5.532325e-11
3.647651e-09 5.514528e-11
3.667049e-09 5.497108e-11
3.686549e-09 5.480062e-11
3.706153e-09 5.463384e-11
3.725861e-09 5.447068e-11
3.745674e-09 5.431110e-11
3.765593e-09 5.415505e-11
3.785617e-09 5.400246e-11
3.805748e-09 5.385329e-11
3.825986e-09 5.370749e-11
3.846331e-09 5.356499e-11
3.866785e-09 5.342574e-11
3.887347e-09 5.328968e-11
3.908019e-09 5.315676e-11
3.928801e-09 5.302692e-11
3.949693e-09 5.290009e-11
3.970696e-09 5.277622e-11
3.991811e-09 5.265523e-11
4.013039e-09 5.253708e-11
4.034379e-09 5.242169e-11
4.055832e-09 5.230899e-11
4.077400e-09 5.219893e-11
4.099083e-09 5.209143e-11
4.120880e-09 5.198643e-11
4.142794e-09 5.188385e-11
4.164824e-09 5.178362e-11
4.186971e-09 5.168568e-11
4.209237e-09 5.158993e-11
4.231620e-09 5.149632e-11
4.254123e-09 5.140477e-11
4.276745e-09 5.131519e-11
4.299487e-09 5.122752e-11
4.322351e-09 5.114167e-11
4.345336e-09 5.105756e-11
4.368443e-09 5.097511e-11
4.391673e-09 5.089424e-11
4.415027e-09 5.081486e-11
4.438505e-09 5.073690e-11
4.462107e-09 5.066028e-11
4.485835e-09 5.058490e-11
4.509690e-09 5.051068e-11
4.533671e-09 5.043755e-11
4.557780e-09 5.036541e-11
4.582017e-09 5.029418e-11
4.606383e-09 5.022378e-11
4.630878e-09 5.015412e-11
4.655504e-09 5.008512e-11
4.680260e-09 5.001670e-11
4.705148e-09 4.994878e-11
4.730169e-09 4.988128e-11
4.755323e-09 4.981411e-11
4.780610e-09 4.974721e-11
4.806032e-09 4.968049e-11
4.831589e-09 4.961389e-11
4.857282e-09 4.954733e-11
4.883112e-09 4.948074e-11
4.909079e-09 4.941406e-11
4.935184e-09 4.934722e-11
4.961428e-09 4.928017e-11
4.987811e-09 4.921284e-11
5.014335e-09 4.914518e-11
5.041000e-09 4.907715e-11
5.067806e-09 4.900869e-11
5.094755e-09 4.893977e-11
5.121848e-09 4.887035e-11
5.149084e-09 4.880039e-11
5.176466e-09 4.872987e-11
5.203993e-09 4.865876e-11
5.231666e-09 4.858704e-11
5.259486e-09 4.851470e-11
5.287455e-09 4.844174e-11
5.315572e-09 4.836814e-11
5.343839e-09 4.829391e-11
5.372256e-09 4.821906e-11
5.400824e-09 4.814361e-11
5.429544e-09 4.806755e-11
5.458416e-09 4.799093e-11
5.487443e-09 4.791377e-11
5.516623e-09 4.783610e-11
5.545959e-09 4.775796e-11
5.575451e-09 4.767939e-11
5.605100e-09 4.760045e-11
5.634906e-09 4.752119e-11
5.664871e-09 4.744166e-11
5.694995e-09 4.736192e-11
5.725279e-09 4.728205e-11
5.755725e-09 4.720212e-11
5.786332e-09 4.712219e-11
5.817102e-09 4.704235e-11
5.848035e-09 4.696268e-11
5.879134e-09 4.688326e-11
5.910397e-09 4.680418e-11
5.941827e-09 4.672552e-11
5.973424e-09 4.664738e-11
6.005189e-09 4.656985e-11
6.037123e-09 4.649303e-11
6.069226e-09 4.641701e-11
6.101501e-09 4.634188e-11
6.133947e-09 4.626776e-11
6.166565e-09 4.619473e-11
6.199357e-09 4.612289e-11
6.232324e-09 4.605234e-11
6.265465e-09 4.598318e-11
6.298783e-09 4.591550e-11
6.332278e-09 4.584939e-11
6.365952e-09 4.578497e-11
6.399804e-09 4.572230e-11
6.433836e-09 4.566150e-11
6.468049e-09 4.560264e-11
6.502445e-09 4.554581e-11
6.537023e-09 4.549111e-11
6.571785e-09 4.543859e-11
6.606732e-09 4.538837e-11
6.641864e-09 4.534049e-11
6.677184e-09 4.529504e-11
6.712691e-09 4.525209e-11
6.748387e-09 4.521170e-11
6.784273e-09 4.517394e-11
6.820350e-09 4.513886e-11
6.856619e-09 4.510653e-11
6.893080e-09 4.507699e-11
6.929736e-09 4.505030e-11
6.966586e-09 4.502649e-11
7.003632e-09 4.500561e-11
7.040876e-09 4.498769e-11
7.078317e-09 4.497276e-11
7.115957e-09 4.496085e-11
7.153798e-09 4.495199e-11
7.191840e-09 4.494618e-11
7.230084e-09 4.494346e-11
7.268531e-09 4.494382e-11
7.307183e-09 4.494727e-11
7.346041e-09 4.495381e-11
7.385105e-09 4.496344e-11
7.424377e-09 4.497615e-11
7.463857e-09 4.499193e-11
7.503548e-09 4.501075e-11
7.543450e-09 4.503260e-11
7.583564e-09 4.505746e-11
7.623891e-09 4.508528e-11
7.664432e-09 4.511603e-11
7.705190e-09 4.514969e-11
7.746164e-09 4.518619e-11
7.787355e-09 4.522549e-11
7.828766e-09 4.526755e-11
7.870397e-09 4.531229e-11
7.912250e-09 4.535966e-11
7.954325e-09 4.540959e-11
7.996624e-09 4.546202e-11
8.039148e-09 4.551687e-11
8.081897e-09 4.557406e-11
8.124875e-09 4.563351e-11
8.168080e-09 4.569513e-11
8.211516e-09 4.575884e-11
8.255182e-09 4.582454e-11
8.299081e-09 4.589215e-11
8.343213e-09 4.596155e-11
8.387580e-09 4.603265e-11
8.432183e-09 4.610535e-11
8.477022e-09 4.617953e-11
8.522101e-09 4.625509e-11
8.567419e-09 4.633193e-11
8.612978e-09 4.640991e-11
8.658779e-09 4.648895e-11
8.704824e-09 4.656891e-11
8.751114e-09 4.664968e-11
8.797650e-09 4.673116e-11
8.844433e-09 4.681320e-11
8.891465e-09 4.689572e-11
8.938747e-09 4.697858e-11
8.986281e-09 4.706167e-11
9.034068e-09 4.714487e-11
9.082108e-09 4.722808e-11
9.130404e-09 4.731118e-11
9.178957e-09 4.739407e-11
9.227768e-09 4.747663e-11
9.276839e-09 4.755876e-11
9.326170e-09 4.764036e-11
9.375764e-09 4.772134e-11
9.425622e-09 4.780160e-11
9.475744e-09 4.788104e-11
9.526134e-09 4.795959e-11
9.576791e-09 4.803717e-11
9.627717e-09 4.811368e-11
9.678915e-09 4.818909e-11
9.730384e-09 4.826329e-11
9.782128e-09 4.833625e-11
9.834146e-09 4.840790e-11
9.886441e-09 4.847820e-11
9.939015e-09 4.854710e-11
9.991867e-09 4.861457e-11
1.004500e-08 4.868059e-11
1.009842e-08 4.874510e-11
1.015212e-08 4.880812e-11
1.020610e-08 4.886959e-11
1.026038e-08 4.892957e-11
1.031494e-08 4.898800e-11
1.036979e-08 4.904491e-11
1.042493e-08 4.910031e-11
1.048037e-08 4.915420e-11
1.053610e-08 4.920663e-11
1.059213e-08 4.925761e-11
1.064846e-08 4.930716e-11
1.070508e-08 4.935534e-11
1.076201e-08 4.940216e-11
1.081924e-08 4.944770e-11
1.087677e-08 4.949198e-11
1.093461e-08 4.953507e-11
1.099276e-08 4.957700e-11
1.105121e-08 4.961786e-11
1.110998e-08 4.965768e-11
1.116906e-08 4.969654e-11
1.122845e-08 4.973450e-11
1.128816e-08 4.977163e-11
1.134819e-08 4.980799e-11
1.140854e-08 4.984366e-11
1.146921e-08 4.987870e-11
1.153020e-08 4.991319e-11
1.159151e-08 4.994717e-11
1.165315e-08 4.998075e-11
1.171512e-08 5.001399e-11
1.177742e-08 5.004693e-11
1.184004e-08 5.007968e-11
1.190301e-08 5.011227e-11
1.196630e-08 5.014480e-11
1.202994e-08 5.017731e-11
1.209391e-08 5.020988e-11
1.215822e-08 5.024256e-11
1.222287e-08 5.027542e-11
1.228787e-08 5.030851e-11
1.235321e-08 5.034189e-11
1.241891e-08 5.037563e-11
1.248495e-08 5.040976e-11
1.255134e-08 5.044433e-11
1.261808e-08 5.047940e-11
1.268518e-08 5.051501e-11
1.275264e-08 5.055122e-11
1.282045e-08 5.058803e-11
1.288863e-08 5.062551e-11
1.295717e-08 5.066370e-11
1.302607e-08 5.070262e-11
1.309534e-08 5.074230e-11
1.316497e-08 5.078278e-11
1.323498e-08 5.082408e-11
1.330536e-08 5.086622e-11
1.337612e-08 5.090925e-11
1.344725e-08 5.095315e-11
1.351875e-08 5.099796e-11
1.359064e-08 5.104371e-11
1.366291e-08 5.109039e-11
1.373557e-08 5.113801e-11
1.380861e-08 5.118662e-11
1.388204e-08 5.123619e-11
1.395586e-08 5.128676e-11
1.403008e-08 5.133830e-11
1.410468e-08 5.139083e-11
1.417969e-08 5.144437e-11
1.425509e-08 5.149891e-11
1.433090e-08 5.155445e-11
1.440710e-08 5.161098e-11
1.448372e-08 5.166853e-11
1.456074e-08 5.172707e-11
1.463817e-08 5.178660e-11
1.471601e-08 5.184714e-11
1.479426e-08 5.190866e-11
1.487293e-08 5.197115e-11
1.495202e-08 5.203463e-11
1.503153e-08 5.209908e-11
1.511147e-08 5.216450e-11
1.519183e-08 5.223087e-11
1.527261e-08 5.229820e-11
1.535383e-08 5.236645e-11
1.543547e-08 5.243566e-11
1.551756e-08 5.250579e-11
1.560007e-08 5.257682e-11
1.568303e-08 5.264877e-11
1.576643e-08 5.272162e-11
1.585027e-08 5.279537e-11
1.593456e-08 5.287000e-11
1.601929e-08 5.294551e-11
1.610448e-08 5.302188e-11
1.619012e-08 5.309912e-11
1.627621e-08 5.317719e-11
1.636276e-08 5.325612e-11
1.644978e-08 5.333589e-11
1.653725e-08 5.341649e-11
1.662519e-08 5.349791e-11
1.671360e-08 5.358015e-11
1.680248e-08 5.366320e-11
1.689183e-08 5.374706e-11
1.698165e-08 5.383173e-11
1.707196e-08 5.391720e-11
1.716274e-08 5.400346e-11
1.725401e-08 5.409053e-11
1.734576e-08 5.417837e-11
1.743800e-08 5.426700e-11
1.753073e-08 5.435642e-11
1.762395e-08 5.444662e-11
1.771767e-08 5.453762e-11
1.781189e-08 5.462940e-11
1.790661e-08 5.472198e-11
1.800183e-08 5.481534e-11
1.809756e-08 5.490950e-11
1.819380e-08 5.500444e-11
1.829055e-08 5.510018e-11
1.838781e-08 5.519674e-11
1.848559e-08 5.529410e-11
1.858389e-08 5.539227e-11
1.868272e-08 5.549127e-11
1.878206e-08 5.559108e-11
1.888194e-08 5.569172e-11
1.898235e-08 5.579322e-11
1.908329e-08 5.589555e-11
1.918477e-08 5.599875e-11
1.928679e-08 5.610280e-11
1.938935e-08 5.620772e-11
1.949246e-08 5.631353e-11
1.959612e-08 5.642023e-11
1.970032e-08 5.652784e-11
1.980508e-08 5.663635e-11
1.991040e-08 5.674580e-11
2.001628e-08 5.685618e-11
2.012272e-08 5.696750e-11
2.022973e-08 5.707978e-11
2.033730e-08 5.719304e-11
2.044545e-08 5.730730e-11
2.055417e-08 5.742256e-11
2.066347e-08 5.753881e-11
2.077336e-08 5.765609e-11
2.088382e-08 5.777440e-11
2.099488e-08 5.789376e-11
2.110652e-08 5.801418e-11
2.121876e-08 5.813570e-11
2.133160e-08 5.825829e-11
2.144503e-08 5.838199e-11
2.155907e-08 5.850679e-11
2.167371e-08 5.863272e-11
2.178897e-08 5.875982e-11
2.190484e-08 5.888806e-11
2.202132e-08 5.901749e-11
2.213842e-08 5.914809e-11
2.225615e-08 5.927989e-11
2.237450e-08 5.941289e-11
2.249348e-08 5.954714e-11
2.261309e-08 5.968262e-11
2.273334e-08 5.981936e-11
2.285423e-08 5.995737e-11
2.297577e-08 6.009665e-11
2.309794e-08 6.023723e-11
2.322077e-08 6.037913e-11
2.334425e-08 6.052235e-11
2.346839e-08 6.066693e-11
2.359319e-08 6.081285e-11
2.371865e-08 6.096012e-11
2.384478e-08 6.110878e-11
2.397158e-08 6.125884e-11
2.409905e-08 6.141029e-11
2.422721e-08 6.156317e-11
2.435604e-08 6.171750e-11
2.448556e-08 6.187329e-11
2.461576e-08 6.203053e-11
2.474666e-08 6.218926e-11
2.487826e-08 6.234949e-11
2.501056e-08 6.251123e-11
2.514355e-08 6.267448e-11
2.527726e-08 6.283930e-11
2.541168e-08 6.300568e-11
2.554681e-08 6.317363e-11
2.568266e-08 6.334314e-11
2.581923e-08 6.351428e-11
2.595653e-08 6.368704e-11
2.609456e-08 6.386145e-11
2.623332e-08 6.403750e-11
2.637283e-08 6.421522e-11
2.651307e-08 6.439464e-11
2.665406e-08 6.457576e-11
2.679580e-08 6.475862e-11
2.693829e-08 6.494322e-11
2.708154e-08 6.512956e-11
2.722555e-08 6.531770e-11
2.737033e-08 6.550766e-11
2.751588e-08 6.569939e-11
2.766220e-08 6.589298e-11
2.780930e-08 6.608840e-11
2.795718e-08 6.628575e-11
2.810585e-08 6.648494e-11
2.825530e-08 6.668608e-11
2.840556e-08 6.688914e-11
2.855661e-08 6.709419e-11
2.870847e-08 6.730118e-11
2.886113e-08 6.751022e-11
2.901461e-08 6.772119e-11
2.916890e-08 6.793428e-11
2.932401e-08 6.814945e-11
2.947994e-08 6.836666e-11
2.963671e-08 6.858603e-11
2.979431e-08 6.880751e-11
2.995275e-08 6.903114e-11
3.011203e-08 6.925699e-11
3.027215e-08 6.948502e-11
3.043313e-08 6.971529e-11
3.059497e-08 6.994782e-11
3.075766e-08 7.018261e-11
3.092122e-08 7.041979e-11
3.108565e-08 7.065921e-11
3.125096e-08 7.090106e-11
3.141714e-08 7.114525e-11
3.158421e-08 7.139190e-11
3.175216e-08 7.164098e-11
3.192101e-08 7.189252e-11
3.209076e-08 7.214657e-11
3.226141e-08 7.240319e-11
3.243297e-08 7.266231e-11
3.260543e-08 7.292402e-11
3.277882e-08 7.318837e-11
3.295313e-08 7.345538e-11
3.312836e-08 7.372502e-11
3.330453e-08 7.399741e-11
3.348164e-08 7.427253e-11
3.365968e-08 7.455040e-11
3.383867e-08 7.483114e-11
3.401862e-08 7.511466e-11
3.419952e-08 7.540109e-11
3.438138e-08 7.569042e-11
3.456421e-08 7.598268e-11
3.474801e-08 7.627787e-11
3.493279e-08 7.657616e-11
3.511856e-08 7.687745e-11
3.530531e-08 7.718183e-11
3.549305e-08 7.748929e-11
3.568179e-08 7.779998e-11
3.587154e-08 7.811380e-11
3.606229e-08 7.843089e-11
3.625406e-08 7.875122e-11
3.644685e-08 7.907489e-11
3.664066e-08 7.940195e-11
3.683551e-08 7.973234e-11
3.703139e-08 8.006618e-11
3.722831e-08 8.040345e-11
3.742628e-08 8.074433e-11
3.762530e-08 8.108873e-11
3.782538e-08 8.143671e-11
3.802653e-08 8.178838e-11
3.822874e-08 8.214374e-11
3.843203e-08 8.250279e-11
3.863640e-08 8.286568e-11
3.884186e-08 8.323239e-11
3.904841e-08 8.360300e-11
3.925606e-08 8.397754e-11
3.946481e-08 8.435606e-11
3.967467e-08 8.473859e-11
3.988565e-08 8.512520e-11
4.009775e-08 8.551593e-11
4.031098e-08 8.591094e-11
4.052534e-08 8.631011e-11
4.074084e-08 8.671356e-11
4.095749e-08 8.712139e-11
4.117529e-08 8.753360e-11
4.139425e-08 8.795031e-11
4.161437e-08 8.837151e-11
4.183566e-08 8.879725e-11
4.205813e-08 8.922767e-11
4.228179e-08 8.966283e-11
4.250663e-08 9.010266e-11
4.273267e-08 9.054734e-11
4.295991e-08 9.099697e-11
4.318836e-08 9.145145e-11
4.341802e-08 9.191094e-11
4.364890e-08 9.237558e-11
4.388101e-08 9.284534e-11
4.411436e-08 9.332029e-11
4.434895e-08 9.380055e-11
4.458478e-08 9.428614e-11
4.482187e-08 9.477722e-11
4.506022e-08 9.527368e-11
4.529984e-08 9.577579e-11
4.554073e-08 9.628352e-11
4.578290e-08 9.679694e-11
4.602636e-08 9.731616e-11
4.627112e-08 9.784128e-11
4.651717e-08 9.837242e-11
4.676454e-08 9.890959e-11
4.701322e-08 9.945277e-11
4.726322e-08 1.000023e-10
4.751455e-08 1.005579e-10
4.776722e-08 1.011200e-10
4.802124e-08 1.016887e-10
4.827660e-08 1.022638e-10
4.853332e-08 1.028455e-10
4.879141e-08 1.034341e-10
4.905086e-08 1.040294e-10
4.931170e-08 1.046317e-10
4.957393e-08 1.052410e-10
4.983755e-08 1.058575e-10
5.010257e-08 1.064811e-10
5.036900e-08 1.071121e-10
5.063685e-08 1.077505e-10
5.090612e-08 1.083965e-10
5.117682e-08 1.090501e-10
5.144897e-08 1.097115e-10
5.172256e-08 1.103807e-10
5.199760e-08 1.110579e-10
5.227411e-08 1.117432e-10
5.255209e-08 1.124367e-10
5.283155e-08 1.131385e-10
5.311249e-08 1.138489e-10
5.339493e-08 1.145678e-10
5.367887e-08 1.152952e-10
5.396431e-08 1.160317e-10
5.425128e-08 1.167770e-10
5.453977e-08 1.175315e-10
5.482980e-08 1.182952e-10
5.512137e-08 1.190682e-10
5.541449e-08 1.198507e-10
5.570917e-08 1.206430e-10
5.600541e-08 1.214450e-10
5.630323e-08 1.222568e-10
5.660264e-08 1.230788e-10
5.690363e-08 1.239111e-10
5.720623e-08 1.247536e-10
5.751044e-08 1.256069e-10
