# sqrt(Delta_m21^2) [eV]    g_IAXOplus [GeV^-1]    (varphi = pi/4, w_res = 0.4 MeV)
1.000000e-09 2.283144e-10
1.005318e-09 2.254828e-10
1.010664e-09 2.226904e-10
1.016038e-09 2.199366e-10
1.021441e-09 2.172209e-10
1.026873e-09 2.145430e-10
1.032333e-09 2.119022e-10
1.037823e-09 2.092981e-10
1.043342e-09 2.067303e-10
1.048890e-09 2.041983e-10
1.054468e-09 2.017016e-10
1.060075e-09 1.992397e-10
1.065712e-09 1.968122e-10
1.071380e-09 1.944186e-10
1.077077e-09 1.920583e-10
1.082804e-09 1.897311e-10
1.088562e-09 1.874363e-10
1.094351e-09 1.851734e-10
1.100171e-09 1.829421e-10
1.106021e-09 1.807419e-10
1.111902e-09 1.785722e-10
1.117815e-09 1.764326e-10
1.123759e-09 1.743227e-10
1.129735e-09 1.722420e-10
1.135743e-09 1.701899e-10
1.141782e-09 1.681662e-10
1.147854e-09 1.661703e-10
1.153958e-09 1.642017e-10
1.160094e-09 1.622601e-10
1.166263e-09 1.603450e-10
1.172465e-09 1.584559e-10
1.178700e-09 1.565925e-10
1.184968e-09 1.547544e-10
1.191269e-09 1.529411e-10
1.197604e-09 1.511522e-10
1.203973e-09 1.493873e-10
1.210375e-09 1.476462e-10
1.216812e-09 1.459284e-10
1.223282e-09 1.442335e-10
1.229787e-09 1.425612e-10
1.236327e-09 1.409112e-10
1.242901e-09 1.392831e-10
1.249511e-09 1.376765e-10
1.256155e-09 1.360913e-10
1.262835e-09 1.345270e-10
1.269551e-09 1.329833e-10
1.276302e-09 1.314599e-10
1.283089e-09 1.299566e-10
1.289912e-09 1.284730e-10
1.296771e-09 1.270089e-10
1.303667e-09 1.255641e-10
1.310600e-09 1.241381e-10
1.317569e-09 1.227308e-10
1.324575e-09 1.213419e-10
1.331619e-09 1.199712e-10
1.338700e-09 1.186184e-10
1.345819e-09 1.172833e-10
1.352976e-09 1.159656e-10
1.360170e-09 1.146650e-10
1.367403e-09 1.133814e-10
1.374675e-09 1.121145e-10
1.381985e-09 1.108641e-10
1.389334e-09 1.096300e-10
1.396722e-09 1.084120e-10
1.404149e-09 1.072098e-10
1.411616e-09 1.060232e-10
1.419123e-09 1.048520e-10
1.426669e-09 1.036961e-10
1.434256e-09 1.025551e-10
1.441883e-09 1.014290e-10
1.449550e-09 1.003174e-10
1.457259e-09 9.922019e-11
1.465008e-09 9.813721e-11
1.472798e-09 9.706823e-11
1.480630e-09 9.601306e-11
1.488504e-09 9.497151e-11
1.496419e-09 9.394338e-11
1.504377e-09 9.292849e-11
1.512377e-09 9.192665e-11
1.520419e-09 9.093768e-11
1.528504e-09 8.996140e-11
1.536632e-09 8.899763e-11
1.544804e-09 8.804620e-11
1.553019e-09 8.710693e-11
1.561277e-09 8.617967e-11
1.569580e-09 8.526422e-11
1.577926e-09 8.436044e-11
1.586317e-09 8.346816e-11
1.594753e-09 8.258722e-11
1.603233e-09 8.171748e-11
1.611759e-09 8.085878e-11
1.620329e-09 8.001097e-11
1.628946e-09 7.917392e-11
1.637608e-09 7.834746e-11
1.646317e-09 7.753148e-11
1.655071e-09 7.672582e-11
1.663872e-09 7.593037e-11
1.672720e-09 7.514498e-11
1.681615e-09 7.436954e-11
1.690558e-09 7.360392e-11
1.699548e-09 7.284798e-11
1.708585e-09 7.210162e-11
1.717671e-09 7.136469e-11
1.726805e-09 7.063710e-11
1.735988e-09 6.991872e-11
1.745219e-09 6.920944e-11
1.754500e-09 6.850913e-11
1.763830e-09 6.781768e-11
1.773209e-09 6.713497e-11
1.782639e-09 6.646090e-11
1.792118e-09 6.579535e-11
1.801648e-09 6.513820e-11
1.811229e-09 6.448935e-11
1.820860e-09 6.384868e-11
1.830543e-09 6.321609e-11
1.840278e-09 6.259146e-11
1.850064e-09 6.197469e-11
1.859902e-09 6.136568e-11
1.869792e-09 6.076433e-11
1.879735e-09 6.017052e-11
1.889731e-09 5.958416e-11
1.899780e-09 5.900516e-11
1.909883e-09 5.843342e-11
1.920039e-09 5.786885e-11
1.930249e-09 5.731135e-11
1.940513e-09 5.676083e-11
1.950833e-09 5.621722e-11
1.961207e-09 5.568042e-11
1.971636e-09 5.515035e-11
1.982120e-09 5.462692e-11
1.992661e-09 5.411006e-11
2.003257e-09 5.359968e-11
2.013910e-09 5.309571e-11
2.024619e-09 5.259806e-11
2.035385e-09 5.210667e-11
2.046209e-09 5.162144e-11
2.057090e-09 5.114231e-11
2.068029e-09 5.066920e-11
2.079026e-09 5.020203e-11
2.090082e-09 4.974072e-11
2.101196e-09 4.928521e-11
2.112370e-09 4.883543e-11
2.123603e-09 4.839128e-11
2.134896e-09 4.795272e-11
2.146248e-09 4.751966e-11
2.157662e-09 4.709203e-11
2.169135e-09 4.666977e-11
2.180670e-09 4.625281e-11
2.192266e-09 4.584108e-11
2.203924e-09 4.543452e-11
2.215644e-09 4.503306e-11
2.227426e-09 4.463664e-11
2.239271e-09 4.424520e-11
2.251179e-09 4.385868e-11
2.263150e-09 4.347701e-11
2.275185e-09 4.310014e-11
2.287284e-09 4.272801e-11
2.299447e-09 4.236056e-11
2.311674e-09 4.199775e-11
2.323967e-09 4.163950e-11
2.336325e-09 4.128577e-11
2.348749e-09 4.093650e-11
2.361239e-09 4.059164e-11
2.373796e-09 4.025114e-11
2.386419e-09 3.991494e-11
2.399109e-09 3.958300e-11
2.411867e-09 3.925525e-11
2.424692e-09 3.893166e-11
2.437586e-09 3.861216e-11
2.450549e-09 3.829672e-11
2.463580e-09 3.798528e-11
2.476681e-09 3.767779e-11
2.489851e-09 3.737421e-11
2.503091e-09 3.707449e-11
2.516402e-09 3.677859e-11
2.529783e-09 3.648645e-11
2.543236e-09 3.619803e-11
2.556760e-09 3.591330e-11
2.570356e-09 3.563220e-11
2.584025e-09 3.535469e-11
2.597766e-09 3.508074e-11
2.611580e-09 3.481030e-11
2.625468e-09 3.454333e-11
2.639429e-09 3.427979e-11
2.653465e-09 3.401965e-11
2.667575e-09 3.376286e-11
2.681761e-09 3.350939e-11
2.696021e-09 3.325921e-11
2.710358e-09 3.301226e-11
2.724771e-09 3.276852e-11
2.739260e-09 3.252795e-11
2.753827e-09 3.229051e-11
2.768471e-09 3.205618e-11
2.783193e-09 3.182491e-11
2.797993e-09 3.159666e-11
2.812872e-09 3.137142e-11
2.827830e-09 3.114913e-11
2.842868e-09 3.092978e-11
2.857985e-09 3.071332e-11
2.873183e-09 3.049973e-11
2.888462e-09 3.028897e-11
2.903822e-09 3.008102e-11
2.919264e-09 2.987584e-11
2.934788e-09 2.967340e-11
2.950394e-09 2.947369e-11
2.966083e-09 2.927666e-11
2.981856e-09 2.908229e-11
2.997713e-09 2.889055e-11
3.013654e-09 2.870142e-11
3.029679e-09 2.851486e-11
3.045790e-09 2.833086e-11
3.061987e-09 2.814938e-11
3.078270e-09 2.797040e-11
3.094639e-09 2.779389e-11
3.111095e-09 2.761983e-11
3.127639e-09 2.744820e-11
3.144271e-09 2.727896e-11
3.160992e-09 2.711210e-11
3.177801e-09 2.694759e-11
3.194699e-09 2.678541e-11
3.211688e-09 2.662554e-11
3.228767e-09 2.646795e-11
3.245936e-09 2.631262e-11
3.263197e-09 2.615953e-11
3.280550e-09 2.600866e-11
3.297995e-09 2.585998e-11
3.315533e-09 2.571349e-11
3.333164e-09 2.556916e-11
3.350889e-09 2.542696e-11
3.368708e-09 2.528688e-11
3.386622e-09 2.514890e-11
3.404631e-09 2.501301e-11
3.422735e-09 2.487917e-11
3.440937e-09 2.474738e-11
3.459234e-09 2.461761e-11
3.477630e-09 2.448986e-11
3.496123e-09 2.436409e-11
3.514714e-09 2.424030e-11
3.533404e-09 2.411846e-11
3.552194e-09 2.399857e-11
3.571083e-09 2.388060e-11
3.590073e-09 2.376454e-11
3.609164e-09 2.365037e-11
3.628357e-09 2.353809e-11
3.647651e-09 2.342767e-11
3.667049e-09 2.331910e-11
3.686549e-09 2.321236e-11
3.706153e-09 2.310745e-11
3.725861e-09 2.300435e-11
3.745674e-09 2.290304e-11
3.765593e-09 2.280351e-11
3.785617e-09 2.270576e-11
3.805748e-09 2.260975e-11
3.825986e-09 2.251550e-11
3.846331e-09 2.242297e-11
3.866785e-09 2.233217e-11
3.887347e-09 2.224307e-11
3.908019e-09 2.215567e-11
3.928801e-09 2.206996e-11
3.949693e-09 2.198592e-11
3.970696e-09 2.190355e-11
3.991811e-09 2.182284e-11
4.013039e-09 2.174377e-11
4.034379e-09 2.166634e-11
4.055832e-09 2.159053e-11
4.077400e-09 2.151634e-11
4.099083e-09 2.144376e-11
4.120880e-09 2.137278e-11
4.142794e-09 2.130339e-11
4.164824e-09 2.123558e-11
4.186971e-09 2.116934e-11
4.209237e-09 2.110467e-11
4.231620e-09 2.104156e-11
4.254123e-09 2.098000e-11
4.276745e-09 2.091998e-11
4.299487e-09 2.086150e-11
4.322351e-09 2.080454e-11
4.345336e-09 2.074911e-11
4.368443e-09 2.069520e-11
4.391673e-09 2.064279e-11
4.415027e-09 2.059188e-11
4.438505e-09 2.054247e-11
4.462107e-09 2.049455e-11
4.485835e-09 2.044812e-11
4.509690e-09 2.040316e-11
4.533671e-09 2.035967e-11
4.557780e-09 2.031765e-11
4.582017e-09 2.027708e-11
4.606383e-09 2.023797e-11
4.630878e-09 2.020031e-11
4.655504e-09 2.016409e-11
4.680260e-09 2.012931e-11
4.705148e-09 2.009595e-11
4.730169e-09 2.006402e-11
4.755323e-09 2.003351e-11
4.780610e-09 2.000441e-11
4.806032e-09 1.997671e-11
4.831589e-09 1.995041e-11
4.857282e-09 1.992550e-11
4.883112e-09 1.990197e-11
4.909079e-09 1.987982e-11
4.935184e-09 1.985904e-11
4.961428e-09 1.983962e-11
4.987811e-09 1.982155e-11
5.014335e-09 1.980483e-11
5.041000e-09 1.978943e-11
5.067806e-09 1.977536e-11
5.094755e-09 1.976259e-11
5.121848e-09 1.975113e-11
5.149084e-09 1.974095e-11
5.176466e-09 1.973205e-11
5.203993e-09 1.972440e-11
5.231666e-09 1.971799e-11
5.259486e-09 1.971281e-11
5.287455e-09 1.970885e-11
5.315572e-09 1.970606e-11
5.343839e-09 1.970445e-11
5.372256e-09 1.970399e-11
5.400824e-09 1.970465e-11
5.429544e-09 1.970641e-11
5.458416e-09 1.970923e-11
5.487443e-09 1.971311e-11
5.516623e-09 1.971799e-11
5.545959e-09 1.972385e-11
5.575451e-09 1.973066e-11
5.605100e-09 1.973837e-11
5.634906e-09 1.974694e-11
5.664871e-09 1.975634e-11
5.694995e-09 1.976651e-11
5.725279e-09 1.977741e-11
5.755725e-09 1.978898e-11
5.786332e-09 1.980117e-11
5.817102e-09 1.981392e-11
5.848035e-09 1.982717e-11
5.879134e-09 1.984085e-11
5.910397e-09 1.985489e-11
5.941827e-09 1.986922e-11
5.973424e-09 1.988375e-11
6.005189e-09 1.989842e-11
6.037123e-09 1.991312e-11
6.069226e-09 1.992778e-11
6.101501e-09 1.994229e-11
6.133947e-09 1.995656e-11
6.166565e-09 1.997047e-11
6.199357e-09 1.998394e-11
6.232324e-09 1.999683e-11
6.265465e-09 2.000904e-11
6.298783e-09 2.002045e-11
6.332278e-09 2.003092e-11
6.365952e-09 2.004035e-11
6.399804e-09 2.004858e-11
6.433836e-09 2.005550e-11
6.468049e-09 2.006095e-11
6.502445e-09 2.006482e-11
6.537023e-09 2.006695e-11
6.571785e-09 2.006720e-11
6.606732e-09 2.006545e-11
6.641864e-09 2.006154e-11
6.677184e-09 2.005534e-11
6.712691e-09 2.004671e-11
6.748387e-09 2.003553e-11
6.784273e-09 2.002167e-11
6.820350e-09 2.000500e-11
6.856619e-09 1.998541e-11
6.893080e-09 1.996280e-11
6.929736e-09 1.993708e-11
6.966586e-09 1.990816e-11
7.003632e-09 1.987596e-11
7.040876e-09 1.984044e-11
7.078317e-09 1.980155e-11
7.115957e-09 1.975927e-11
7.153798e-09 1.971361e-11
7.191840e-09 1.966458e-11
7.230084e-09 1.961223e-11
7.268531e-09 1.955663e-11
7.307183e-09 1.949790e-11
7.346041e-09 1.943619e-11
7.385105e-09 1.937169e-11
7.424377e-09 1.930466e-11
7.463857e-09 1.923541e-11
7.503548e-09 1.916427e-11
7.543450e-09 1.909156e-11
7.583564e-09 1.901764e-11
7.623891e-09 1.894283e-11
7.664432e-09 1.886748e-11
7.705190e-09 1.879190e-11
7.746164e-09 1.871642e-11
7.787355e-09 1.864132e-11
7.828766e-09 1.856691e-11
7.870397e-09 1.849344e-11
7.912250e-09 1.842116e-11
7.954325e-09 1.835031e-11
7.996624e-09 1.828111e-11
8.039148e-09 1.821375e-11
8.081897e-09 1.814841e-11
8.124875e-09 1.808524e-11
8.168080e-09 1.802439e-11
8.211516e-09 1.796598e-11
8.255182e-09 1.791012e-11
8.299081e-09 1.785690e-11
8.343213e-09 1.780638e-11
8.387580e-09 1.775863e-11
8.432183e-09 1.771367e-11
8.477022e-09 1.767155e-11
8.522101e-09 1.763226e-11
8.567419e-09 1.759580e-11
8.612978e-09 1.756216e-11
8.658779e-09 1.753130e-11
8.704824e-09 1.750318e-11
8.751114e-09 1.747774e-11
8.797650e-09 1.745491e-11
8.844433e-09 1.743462e-11
8.891465e-09 1.741677e-11
8.938747e-09 1.740127e-11
8.986281e-09 1.738800e-11
9.034068e-09 1.737684e-11
9.082108e-09 1.736768e-11
9.130404e-09 1.736037e-11
9.178957e-09 1.735478e-11
9.227768e-09 1.735077e-11
9.276839e-09 1.734818e-11
9.326170e-09 1.734686e-11
9.375764e-09 1.734666e-11
9.425622e-09 1.734744e-11
9.475744e-09 1.734903e-11
9.526134e-09 1.735128e-11
9.576791e-09 1.735406e-11
9.627717e-09 1.735723e-11
9.678915e-09 1.736065e-11
9.730384e-09 1.736421e-11
9.782128e-09 1.736779e-11
9.834146e-09 1.737129e-11
9.886441e-09 1.737464e-11
9.939015e-09 1.737777e-11
9.991867e-09 1.738062e-11
1.004500e-08 1.738316e-11
1.009842e-08 1.738538e-11
1.015212e-08 1.738728e-11
1.020610e-08 1.738890e-11
1.026038e-08 1.739027e-11
1.031494e-08 1.739147e-11
1.036979e-08 1.739258e-11
1.042493e-08 1.739372e-11
1.048037e-08 1.739500e-11
1.053610e-08 1.739657e-11
1.059213e-08 1.739859e-11
1.064846e-08 1.740123e-11
1.070508e-08 1.740469e-11
1.076201e-08 1.740915e-11
1.081924e-08 1.741484e-11
1.087677e-08 1.742195e-11
1.093461e-08 1.743071e-11
1.099276e-08 1.744133e-11
1.105121e-08 1.745402e-11
1.110998e-08 1.746898e-11
1.116906e-08 1.748641e-11
1.122845e-08 1.750649e-11
1.128816e-08 1.752939e-11
1.134819e-08 1.755523e-11
1.140854e-08 1.758415e-11
1.146921e-08 1.761621e-11
1.153020e-08 1.765147e-11
1.159151e-08 1.768993e-11
1.165315e-08 1.773155e-11
1.171512e-08 1.777625e-11
1.177742e-08 1.782388e-11
1.184004e-08 1.787422e-11
1.190301e-08 1.792701e-11
1.196630e-08 1.798191e-11
1.202994e-08 1.803851e-11
1.209391e-08 1.809631e-11
1.215822e-08 1.815477e-11
1.222287e-08 1.821326e-11
1.228787e-08 1.827108e-11
1.235321e-08 1.832751e-11
1.241891e-08 1.838176e-11
1.248495e-08 1.843305e-11
1.255134e-08 1.848062e-11
1.261808e-08 1.852375e-11
1.268518e-08 1.856186e-11
1.275264e-08 1.859461e-11
1.282045e-08 1.862199e-11
1.288863e-08 1.864436e-11
1.295717e-08 1.866234e-11
1.302607e-08 1.867662e-11
1.309534e-08 1.868798e-11
1.316497e-08 1.869719e-11
1.323498e-08 1.870498e-11
1.330536e-08 1.871206e-11
1.337612e-08 1.871903e-11
1.344725e-08 1.872641e-11
1.351875e-08 1.873463e-11
1.359064e-08 1.874403e-11
1.366291e-08 1.875480e-11
1.373557e-08 1.876706e-11
1.380861e-08 1.878082e-11
1.388204e-08 1.879600e-11
1.395586e-08 1.881242e-11
1.403008e-08 1.882987e-11
1.410468e-08 1.884805e-11
1.417969e-08 1.886665e-11
1.425509e-08 1.888534e-11
1.433090e-08 1.890380e-11
1.440710e-08 1.892173e-11
1.448372e-08 1.893887e-11
1.456074e-08 1.895504e-11
1.463817e-08 1.897011e-11
1.471601e-08 1.898405e-11
1.479426e-08 1.899692e-11
1.487293e-08 1.900887e-11
1.495202e-08 1.902013e-11
1.503153e-08 1.903103e-11
1.511147e-08 1.904192e-11
1.519183e-08 1.905322e-11
1.527261e-08 1.906533e-11
1.535383e-08 1.907864e-11
1.543547e-08 1.909349e-11
1.551756e-08 1.911013e-11
1.560007e-08 1.912866e-11
1.568303e-08 1.914904e-11
1.576643e-08 1.917106e-11
1.585027e-08 1.919427e-11
1.593456e-08 1.921804e-11
1.601929e-08 1.924150e-11
1.610448e-08 1.926363e-11
1.619012e-08 1.928325e-11
1.627621e-08 1.929919e-11
1.636276e-08 1.931038e-11
1.644978e-08 1.931619e-11
1.653725e-08 1.931672e-11
1.662519e-08 1.931299e-11
1.671360e-08 1.930645e-11
1.680248e-08 1.929869e-11
1.689183e-08 1.929112e-11
1.698165e-08 1.928490e-11
1.707196e-08 1.928091e-11
1.716274e-08 1.927969e-11
1.725401e-08 1.928143e-11
1.734576e-08 1.928605e-11
1.743800e-08 1.929324e-11
1.753073e-08 1.930248e-11
1.762395e-08 1.931319e-11
1.771767e-08 1.932475e-11
1.781189e-08 1.933659e-11
1.790661e-08 1.934830e-11
1.800183e-08 1.935963e-11
1.809756e-08 1.937056e-11
1.819380e-08 1.938131e-11
1.829055e-08 1.939227e-11
1.838781e-08 1.940401e-11
1.848559e-08 1.941716e-11
1.858389e-08 1.943233e-11
1.868272e-08 1.944996e-11
1.878206e-08 1.947027e-11
1.888194e-08 1.949310e-11
1.898235e-08 1.951786e-11
1.908329e-08 1.954349e-11
1.918477e-08 1.956850e-11
1.928679e-08 1.959114e-11
1.938935e-08 1.960973e-11
1.949246e-08 1.962327e-11
1.959612e-08 1.963216e-11
1.970032e-08 1.963812e-11
1.980508e-08 1.964328e-11
1.991040e-08 1.964952e-11
2.001628e-08 1.965815e-11
2.012272e-08 1.966981e-11
2.022973e-08 1.968454e-11
2.033730e-08 1.970187e-11
2.044545e-08 1.972102e-11
2.055417e-08 1.974106e-11
2.066347e-08 1.976119e-11
2.077336e-08 1.978089e-11
2.088382e-08 1.980002e-11
2.099488e-08 1.981887e-11
2.110652e-08 1.983812e-11
2.121876e-08 1.985864e-11
2.133160e-08 1.988126e-11
2.144503e-08 1.990656e-11
2.155907e-08 1.993451e-11
2.167371e-08 1.996432e-11
2.178897e-08 1.999439e-11
2.190484e-08 2.002245e-11
2.202132e-08 2.004624e-11
2.213842e-08 2.006472e-11
2.225615e-08 2.007901e-11
2.237450e-08 2.009174e-11
2.249348e-08 2.010547e-11
2.261309e-08 2.012182e-11
2.273334e-08 2.014130e-11
2.285423e-08 2.016346e-11
2.297577e-08 2.018726e-11
2.309794e-08 2.021154e-11
2.322077e-08 2.023540e-11
2.334425e-08 2.025856e-11
2.346839e-08 2.028143e-11
2.359319e-08 2.030499e-11
2.371865e-08 2.033038e-11
2.384478e-08 2.035843e-11
2.397158e-08 2.038905e-11
2.409905e-08 2.042095e-11
2.422721e-08 2.045159e-11
2.435604e-08 2.047812e-11
2.448556e-08 2.049926e-11
2.461576e-08 2.051663e-11
2.474666e-08 2.053353e-11
2.487826e-08 2.055261e-11
2.501056e-08 2.057486e-11
2.514355e-08 2.059978e-11
2.527726e-08 2.062601e-11
2.541168e-08 2.065220e-11
2.554681e-08 2.067769e-11
2.568266e-08 2.070284e-11
2.581923e-08 2.072886e-11
2.595653e-08 2.075709e-11
2.609456e-08 2.078810e-11
2.623332e-08 2.082084e-11
2.637283e-08 2.085251e-11
2.651307e-08 2.087988e-11
2.665406e-08 2.090209e-11
2.679580e-08 2.092184e-11
2.693829e-08 2.094281e-11
2.708154e-08 2.096690e-11
2.722555e-08 2.099378e-11
2.737033e-08 2.102186e-11
2.751588e-08 2.104966e-11
2.766220e-08 2.107686e-11
2.780930e-08 2.110449e-11
2.795718e-08 2.113416e-11
2.810585e-08 2.116660e-11
2.825530e-08 2.120042e-11
2.840556e-08 2.123213e-11
2.855661e-08 2.125893e-11
2.870847e-08 2.128193e-11
2.886113e-08 2.130518e-11
2.901461e-08 2.133139e-11
2.916890e-08 2.136039e-11
2.932401e-08 2.139035e-11
2.947994e-08 2.141986e-11
2.963671e-08 2.144920e-11
2.979431e-08 2.148001e-11
2.995275e-08 2.151353e-11
3.011203e-08 2.154857e-11
3.027215e-08 2.158140e-11
3.043313e-08 2.160947e-11
3.059497e-08 2.163490e-11
3.075766e-08 2.166190e-11
3.092122e-08 2.169202e-11
3.108565e-08 2.172377e-11
3.125096e-08 2.175535e-11
3.141714e-08 2.178678e-11
3.158421e-08 2.181981e-11
3.175216e-08 2.185542e-11
3.192101e-08 2.189144e-11
3.209076e-08 2.192396e-11
3.226141e-08 2.195256e-11
3.243297e-08 2.198128e-11
3.260543e-08 2.201291e-11
3.277882e-08 2.204645e-11
3.295313e-08 2.207995e-11
3.312836e-08 2.211353e-11
3.330453e-08 2.214904e-11
3.348164e-08 2.218661e-11
3.365968e-08 2.222283e-11
3.383867e-08 2.225499e-11
3.401862e-08 2.228569e-11
3.419952e-08 2.231874e-11
3.438138e-08 2.235395e-11
3.456421e-08 2.238932e-11
3.474801e-08 2.242496e-11
3.493279e-08 2.246265e-11
3.511856e-08 2.250161e-11
3.530531e-08 2.253805e-11
3.549305e-08 2.257129e-11
3.568179e-08 2.260527e-11
3.587154e-08 2.264176e-11
3.606229e-08 2.267899e-11
3.625406e-08 2.271640e-11
3.644685e-08 2.275561e-11
3.664066e-08 2.279591e-11
3.683551e-08 2.283370e-11
3.703139e-08 2.286903e-11
3.722831e-08 2.290576e-11
3.742628e-08 2.294450e-11
3.762530e-08 2.298354e-11
3.782538e-08 2.302356e-11
3.802653e-08 2.306525e-11
3.822874e-08 2.310570e-11
3.843203e-08 2.314346e-11
3.863640e-08 2.318188e-11
3.884186e-08 2.322228e-11
3.904841e-08 2.326318e-11
3.925606e-08 2.330516e-11
3.946481e-08 2.334838e-11
3.967467e-08 2.338988e-11
3.988565e-08 2.342962e-11
4.009775e-08 2.347080e-11
4.031098e-08 2.351334e-11
4.052534e-08 2.355649e-11
4.074084e-08 2.360104e-11
4.095749e-08 2.364507e-11
4.117529e-08 2.368709e-11
4.139425e-08 2.372984e-11
4.161437e-08 2.377409e-11
4.183566e-08 2.381907e-11
4.205813e-08 2.386528e-11
4.228179e-08 2.391090e-11
4.250663e-08 2.395498e-11
4.273267e-08 2.400004e-11
4.295991e-08 2.404636e-11
4.318836e-08 2.409360e-11
4.341802e-08 2.414159e-11
4.364890e-08 2.418834e-11
4.388101e-08 2.423474e-11
4.411436e-08 2.428255e-11
4.434895e-08 2.433132e-11
4.458478e-08 2.438103e-11
4.482187e-08 2.443013e-11
4.506022e-08 2.447852e-11
4.529984e-08 2.452810e-11
4.554073e-08 2.457876e-11
4.578290e-08 2.463028e-11
4.602636e-08 2.468133e-11
4.627112e-08 2.473192e-11
4.651717e-08 2.478368e-11
4.676454e-08 2.483651e-11
4.701322e-08 2.488997e-11
4.726322e-08 2.494284e-11
4.751455e-08 2.499586e-11
4.776722e-08 2.505013e-11
4.802124e-08 2.510533e-11
4.827660e-08 2.516064e-11
4.853332e-08 2.521556e-11
4.879141e-08 2.527143e-11
4.905086e-08 2.532841e-11
4.931170e-08 2.538587e-11
4.957393e-08 2.544303e-11
4.983755e-08 2.550080e-11
5.010257e-08 2.555975e-11
5.036900e-08 2.561930e-11
5.063685e-08 2.567873e-11
5.090612e-08 2.573869e-11
5.117682e-08 2.579981e-11
5.144897e-08 2.586154e-11
5.172256e-08 2.592326e-11
5.199760e-08 2.598564e-11
5.227411e-08 2.604913e-11
5.255209e-08 2.611312e-11
5.283155e-08 2.617723e-11
5.311249e-08 2.624228e-11
5.339493e-08 2.630827e-11
5.367887e-08 2.637463e-11
5.396431e-08 2.644141e-11
5.425128e-08 2.650928e-11
5.453977e-08 2.657787e-11
5.482980e-08 2.664678e-11
5.512137e-08 2.671657e-11
5.541449e-08 2.678731e-11
5.570917e-08 2.685854e-11
5.600541e-08 2.693045e-11
5.630323e-08 2.700339e-11
5.660264e-08 2.707698e-11
5.690363e-08 2.715118e-11
5.720623e-08 2.722643e-11
5.751044e-08 2.730245e-11
5.781626e-08 2.737910e-11
