# sqrt(Delta_m21^2) [eV]    g_IAXO [GeV^-1]    (varphi = pi/4, w_res = 0.4 MeV, delta = 0)
1.000000e-09 4.663964e-10
1.005318e-09 4.605483e-10
1.010664e-09 4.547900e-10
1.016038e-09 4.491195e-10
1.021441e-09 4.435347e-10
1.026873e-09 4.380338e-10
1.032333e-09 4.326149e-10
1.037823e-09 4.272763e-10
1.043342e-09 4.220164e-10
1.048890e-09 4.168334e-10
1.054468e-09 4.117260e-10
1.060075e-09 4.066926e-10
1.065712e-09 4.017319e-10
1.071380e-09 3.968424e-10
1.077077e-09 3.920229e-10
1.082804e-09 3.872722e-10
1.088562e-09 3.825891e-10
1.094351e-09 3.779725e-10
1.100171e-09 3.734211e-10
1.106021e-09 3.689340e-10
1.111902e-09 3.645101e-10
1.117815e-09 3.601485e-10
1.123759e-09 3.558481e-10
1.129735e-09 3.516079e-10
1.135743e-09 3.474272e-10
1.141782e-09 3.433048e-10
1.147854e-09 3.392401e-10
1.153958e-09 3.352321e-10
1.160094e-09 3.312799e-10
1.166263e-09 3.273828e-10
1.172465e-09 3.235398e-10
1.178700e-09 3.197503e-10
1.184968e-09 3.160134e-10
1.191269e-09 3.123283e-10
1.197604e-09 3.086942e-10
1.203973e-09 3.051104e-10
1.210375e-09 3.015761e-10
1.216812e-09 2.980906e-10
1.223282e-09 2.946530e-10
1.229787e-09 2.912626e-10
1.236327e-09 2.879188e-10
1.242901e-09 2.846208e-10
1.249511e-09 2.813678e-10
1.256155e-09 2.781593e-10
1.262835e-09 2.749945e-10
1.269551e-09 2.718727e-10
1.276302e-09 2.687934e-10
1.283089e-09 2.657557e-10
1.289912e-09 2.627591e-10
1.296771e-09 2.598029e-10
1.303667e-09 2.568865e-10
1.310600e-09 2.540093e-10
1.317569e-09 2.511707e-10
1.324575e-09 2.483701e-10
1.331619e-09 2.456068e-10
1.338700e-09 2.428804e-10
1.345819e-09 2.401903e-10
1.352976e-09 2.375359e-10
1.360170e-09 2.349166e-10
1.367403e-09 2.323321e-10
1.374675e-09 2.297817e-10
1.381985e-09 2.272650e-10
1.389334e-09 2.247814e-10
1.396722e-09 2.223304e-10
1.404149e-09 2.199117e-10
1.411616e-09 2.175246e-10
1.419123e-09 2.151688e-10
1.426669e-09 2.128439e-10
1.434256e-09 2.105493e-10
1.441883e-09 2.082847e-10
1.449550e-09 2.060496e-10
1.457259e-09 2.038436e-10
1.465008e-09 2.016664e-10
1.472798e-09 1.995174e-10
1.480630e-09 1.973964e-10
1.488504e-09 1.953030e-10
1.496419e-09 1.932367e-10
1.504377e-09 1.911973e-10
1.512377e-09 1.891843e-10
1.520419e-09 1.871975e-10
1.528504e-09 1.852364e-10
1.536632e-09 1.833007e-10
1.544804e-09 1.813902e-10
1.553019e-09 1.795044e-10
1.561277e-09 1.776430e-10
1.569580e-09 1.758058e-10
1.577926e-09 1.739924e-10
1.586317e-09 1.722024e-10
1.594753e-09 1.704357e-10
1.603233e-09 1.686918e-10
1.611759e-09 1.669705e-10
1.620329e-09 1.652715e-10
1.628946e-09 1.635945e-10
1.637608e-09 1.619391e-10
1.646317e-09 1.603052e-10
1.655071e-09 1.586923e-10
1.663872e-09 1.571003e-10
1.672720e-09 1.555288e-10
1.681615e-09 1.539776e-10
1.690558e-09 1.524463e-10
1.699548e-09 1.509347e-10
1.708585e-09 1.494426e-10
1.717671e-09 1.479696e-10
1.726805e-09 1.465156e-10
1.735988e-09 1.450802e-10
1.745219e-09 1.436632e-10
1.754500e-09 1.422644e-10
1.763830e-09 1.408835e-10
1.773209e-09 1.395204e-10
1.782639e-09 1.381747e-10
1.792118e-09 1.368462e-10
1.801648e-09 1.355348e-10
1.811229e-09 1.342402e-10
1.820860e-09 1.329622e-10
1.830543e-09 1.317006e-10
1.840278e-09 1.304552e-10
1.850064e-09 1.292258e-10
1.859902e-09 1.280122e-10
1.869792e-09 1.268142e-10
1.879735e-09 1.256316e-10
1.889731e-09 1.244643e-10
1.899780e-09 1.233120e-10
1.909883e-09 1.221746e-10
1.920039e-09 1.210518e-10
1.930249e-09 1.199435e-10
1.940513e-09 1.188495e-10
1.950833e-09 1.177696e-10
1.961207e-09 1.167036e-10
1.971636e-09 1.156514e-10
1.982120e-09 1.146128e-10
1.992661e-09 1.135875e-10
2.003257e-09 1.125755e-10
2.013910e-09 1.115766e-10
2.024619e-09 1.105905e-10
2.035385e-09 1.096172e-10
2.046209e-09 1.086564e-10
2.057090e-09 1.077081e-10
2.068029e-09 1.067720e-10
2.079026e-09 1.058480e-10
2.090082e-09 1.049360e-10
2.101196e-09 1.040359e-10
2.112370e-09 1.031474e-10
2.123603e-09 1.022704e-10
2.134896e-09 1.014049e-10
2.146248e-09 1.005506e-10
2.157662e-09 9.970744e-11
2.169135e-09 9.887531e-11
2.180670e-09 9.805406e-11
2.192266e-09 9.724356e-11
2.203924e-09 9.644369e-11
2.215644e-09 9.565431e-11
2.227426e-09 9.487531e-11
2.239271e-09 9.410656e-11
2.251179e-09 9.334793e-11
2.263150e-09 9.259932e-11
2.275185e-09 9.186059e-11
2.287284e-09 9.113163e-11
2.299447e-09 9.041233e-11
2.311674e-09 8.970257e-11
2.323967e-09 8.900223e-11
2.336325e-09 8.831121e-11
2.348749e-09 8.762940e-11
2.361239e-09 8.695669e-11
2.373796e-09 8.629298e-11
2.386419e-09 8.563816e-11
2.399109e-09 8.499212e-11
2.411867e-09 8.435478e-11
2.424692e-09 8.372602e-11
2.437586e-09 8.310576e-11
2.450549e-09 8.249390e-11
2.463580e-09 8.189034e-11
2.476681e-09 8.129500e-11
2.489851e-09 8.070778e-11
2.503091e-09 8.012860e-11
2.516402e-09 7.955736e-11
2.529783e-09 7.899399e-11
2.543236e-09 7.843838e-11
2.556760e-09 7.789047e-11
2.570356e-09 7.735016e-11
2.584025e-09 7.681738e-11
2.597766e-09 7.629203e-11
2.611580e-09 7.577404e-11
2.625468e-09 7.526334e-11
2.639429e-09 7.475983e-11
2.653465e-09 7.426345e-11
2.667575e-09 7.377411e-11
2.681761e-09 7.329173e-11
2.696021e-09 7.281626e-11
2.710358e-09 7.234760e-11
2.724771e-09 7.188570e-11
2.739260e-09 7.143048e-11
2.753827e-09 7.098187e-11
2.768471e-09 7.053981e-11
2.783193e-09 7.010422e-11
2.797993e-09 6.967505e-11
2.812872e-09 6.925223e-11
2.827830e-09 6.883569e-11
2.842868e-09 6.842538e-11
2.857985e-09 6.802122e-11
2.873183e-09 6.762317e-11
2.888462e-09 6.723116e-11
2.903822e-09 6.684512e-11
2.919264e-09 6.646500e-11
2.934788e-09 6.609073e-11
2.950394e-09 6.572227e-11
2.966083e-09 6.535955e-11
2.981856e-09 6.500252e-11
2.997713e-09 6.465111e-11
3.013654e-09 6.430528e-11
3.029679e-09 6.396497e-11
3.045790e-09 6.363012e-11
3.061987e-09 6.330069e-11
3.078270e-09 6.297663e-11
3.094639e-09 6.265787e-11
3.111095e-09 6.234437e-11
3.127639e-09 6.203608e-11
3.144271e-09 6.173296e-11
3.160992e-09 6.143494e-11
3.177801e-09 6.114198e-11
3.194699e-09 6.085404e-11
3.211688e-09 6.057105e-11
3.228767e-09 6.029299e-11
3.245936e-09 6.001978e-11
3.263197e-09 5.975140e-11
3.280550e-09 5.948779e-11
3.297995e-09 5.922890e-11
3.315533e-09 5.897469e-11
3.333164e-09 5.872511e-11
3.350889e-09 5.848011e-11
3.368708e-09 5.823965e-11
3.386622e-09 5.800368e-11
3.404631e-09 5.777215e-11
3.422735e-09 5.754502e-11
3.440937e-09 5.732224e-11
3.459234e-09 5.710377e-11
3.477630e-09 5.688956e-11
3.496123e-09 5.667956e-11
3.514714e-09 5.647373e-11
3.533404e-09 5.627201e-11
3.552194e-09 5.607437e-11
3.571083e-09 5.588076e-11
3.590073e-09 5.569112e-11
3.609164e-09 5.550541e-11
3.628357e-09 5.532358e-11
3.647651e-09 5.514558e-11
3.667049e-09 5.497136e-11
3.686549e-09 5.480086e-11
3.706153e-09 5.463406e-11
3.725861e-09 5.447088e-11
3.745674e-09 5.431128e-11
3.765593e-09 5.415520e-11
3.785617e-09 5.400260e-11
3.805748e-09 5.385341e-11
3.825986e-09 5.370759e-11
3.846331e-09 5.356508e-11
3.866785e-09 5.342582e-11
3.887347e-09 5.328976e-11
3.908019e-09 5.315683e-11
3.928801e-09 5.302697e-11
3.949693e-09 5.290013e-11
3.970696e-09 5.277625e-11
3.991811e-09 5.265527e-11
4.013039e-09 5.253711e-11
4.034379e-09 5.242171e-11
4.055832e-09 5.230902e-11
4.077400e-09 5.219895e-11
4.099083e-09 5.209145e-11
4.120880e-09 5.198645e-11
4.142794e-09 5.188388e-11
4.164824e-09 5.178365e-11
4.186971e-09 5.168570e-11
4.209237e-09 5.158997e-11
4.231620e-09 5.149636e-11
4.254123e-09 5.140481e-11
4.276745e-09 5.131525e-11
4.299487e-09 5.122758e-11
4.322351e-09 5.114173e-11
4.345336e-09 5.105763e-11
4.368443e-09 5.097519e-11
4.391673e-09 5.089433e-11
4.415027e-09 5.081497e-11
4.438505e-09 5.073702e-11
4.462107e-09 5.066041e-11
4.485835e-09 5.058504e-11
4.509690e-09 5.051084e-11
4.533671e-09 5.043771e-11
4.557780e-09 5.036559e-11
4.582017e-09 5.029437e-11
4.606383e-09 5.022398e-11
4.630878e-09 5.015434e-11
4.655504e-09 5.008536e-11
4.680260e-09 5.001695e-11
4.705148e-09 4.994905e-11
4.730169e-09 4.988156e-11
4.755323e-09 4.981441e-11
4.780610e-09 4.974752e-11
4.806032e-09 4.968082e-11
4.831589e-09 4.961424e-11
4.857282e-09 4.954769e-11
4.883112e-09 4.948112e-11
4.909079e-09 4.941445e-11
4.935184e-09 4.934763e-11
4.961428e-09 4.928059e-11
4.987811e-09 4.921327e-11
5.014335e-09 4.914563e-11
5.041000e-09 4.907762e-11
5.067806e-09 4.900917e-11
5.094755e-09 4.894026e-11
5.121848e-09 4.887085e-11
5.149084e-09 4.880091e-11
5.176466e-09 4.873040e-11
5.203993e-09 4.865930e-11
5.231666e-09 4.858759e-11
5.259486e-09 4.851527e-11
5.287455e-09 4.844231e-11
5.315572e-09 4.836872e-11
5.343839e-09 4.829451e-11
5.372256e-09 4.821967e-11
5.400824e-09 4.814421e-11
5.429544e-09 4.806817e-11
5.458416e-09 4.799155e-11
5.487443e-09 4.791439e-11
5.516623e-09 4.783673e-11
5.545959e-09 4.775859e-11
5.575451e-09 4.768003e-11
5.605100e-09 4.760109e-11
5.634906e-09 4.752183e-11
5.664871e-09 4.744230e-11
5.694995e-09 4.736257e-11
5.725279e-09 4.728270e-11
5.755725e-09 4.720276e-11
5.786332e-09 4.712283e-11
5.817102e-09 4.704299e-11
5.848035e-09 4.696332e-11
5.879134e-09 4.688389e-11
5.910397e-09 4.680480e-11
5.941827e-09 4.672614e-11
5.973424e-09 4.664800e-11
6.005189e-09 4.657046e-11
6.037123e-09 4.649363e-11
6.069226e-09 4.641761e-11
6.101501e-09 4.634248e-11
6.133947e-09 4.626834e-11
6.166565e-09 4.619530e-11
6.199357e-09 4.612345e-11
6.232324e-09 4.605290e-11
6.265465e-09 4.598372e-11
6.298783e-09 4.591603e-11
6.332278e-09 4.584992e-11
6.365952e-09 4.578548e-11
6.399804e-09 4.572281e-11
6.433836e-09 4.566200e-11
6.468049e-09 4.560313e-11
6.502445e-09 4.554629e-11
6.537023e-09 4.549157e-11
6.571785e-09 4.543905e-11
6.606732e-09 4.538880e-11
6.641864e-09 4.534092e-11
6.677184e-09 4.529545e-11
6.712691e-09 4.525249e-11
6.748387e-09 4.521209e-11
6.784273e-09 4.517432e-11
6.820350e-09 4.513923e-11
6.856619e-09 4.510689e-11
6.893080e-09 4.507734e-11
6.929736e-09 4.505063e-11
6.966586e-09 4.502682e-11
7.003632e-09 4.500592e-11
7.040876e-09 4.498799e-11
7.078317e-09 4.497305e-11
7.115957e-09 4.496113e-11
7.153798e-09 4.495226e-11
7.191840e-09 4.494645e-11
7.230084e-09 4.494371e-11
7.268531e-09 4.494406e-11
7.307183e-09 4.494750e-11
7.346041e-09 4.495403e-11
7.385105e-09 4.496366e-11
7.424377e-09 4.497635e-11
7.463857e-09 4.499212e-11
7.503548e-09 4.501094e-11
7.543450e-09 4.503278e-11
7.583564e-09 4.505763e-11
7.623891e-09 4.508544e-11
7.664432e-09 4.511620e-11
7.705190e-09 4.514984e-11
7.746164e-09 4.518633e-11
7.787355e-09 4.522563e-11
7.828766e-09 4.526768e-11
7.870397e-09 4.531241e-11
7.912250e-09 4.535978e-11
7.954325e-09 4.540971e-11
7.996624e-09 4.546213e-11
8.039148e-09 4.551698e-11
8.081897e-09 4.557416e-11
8.124875e-09 4.563360e-11
8.168080e-09 4.569522e-11
8.211516e-09 4.575893e-11
8.255182e-09 4.582463e-11
8.299081e-09 4.589223e-11
8.343213e-09 4.596163e-11
8.387580e-09 4.603273e-11
8.432183e-09 4.610542e-11
8.477022e-09 4.617960e-11
8.522101e-09 4.625516e-11
8.567419e-09 4.633199e-11
8.612978e-09 4.640998e-11
8.658779e-09 4.648901e-11
8.704824e-09 4.656897e-11
8.751114e-09 4.664975e-11
8.797650e-09 4.673122e-11
8.844433e-09 4.681327e-11
8.891465e-09 4.689578e-11
8.938747e-09 4.697864e-11
8.986281e-09 4.706173e-11
9.034068e-09 4.714493e-11
9.082108e-09 4.722814e-11
9.130404e-09 4.731125e-11
9.178957e-09 4.739413e-11
9.227768e-09 4.747669e-11
9.276839e-09 4.755882e-11
9.326170e-09 4.764043e-11
9.375764e-09 4.772141e-11
9.425622e-09 4.780166e-11
9.475744e-09 4.788111e-11
9.526134e-09 4.795966e-11
9.576791e-09 4.803723e-11
9.627717e-09 4.811376e-11
9.678915e-09 4.818915e-11
9.730384e-09 4.826336e-11
9.782128e-09 4.833632e-11
9.834146e-09 4.840798e-11
9.886441e-09 4.847827e-11
9.939015e-09 4.854718e-11
9.991867e-09 4.861465e-11
1.004500e-08 4.868066e-11
1.009842e-08 4.874518e-11
1.015212e-08 4.880819e-11
1.020610e-08 4.886969e-11
1.026038e-08 4.892964e-11
1.031494e-08 4.898808e-11
1.036979e-08 4.904499e-11
1.042493e-08 4.910039e-11
1.048037e-08 4.915429e-11
1.053610e-08 4.920672e-11
1.059213e-08 4.925769e-11
1.064846e-08 4.930725e-11
1.070508e-08 4.935542e-11
1.076201e-08 4.940226e-11
1.081924e-08 4.944779e-11
1.087677e-08 4.949207e-11
1.093461e-08 4.953515e-11
1.099276e-08 4.957710e-11
1.105121e-08 4.961795e-11
1.110998e-08 4.965778e-11
1.116906e-08 4.969664e-11
1.122845e-08 4.973460e-11
1.128816e-08 4.977173e-11
1.134819e-08 4.980810e-11
1.140854e-08 4.984376e-11
1.146921e-08 4.987880e-11
1.153020e-08 4.991328e-11
1.159151e-08 4.994728e-11
1.165315e-08 4.998086e-11
1.171512e-08 5.001408e-11
1.177742e-08 5.004704e-11
1.184004e-08 5.007978e-11
1.190301e-08 5.011238e-11
1.196630e-08 5.014490e-11
1.202994e-08 5.017742e-11
1.209391e-08 5.020998e-11
1.215822e-08 5.024267e-11
1.222287e-08 5.027553e-11
1.228787e-08 5.030862e-11
1.235321e-08 5.034201e-11
1.241891e-08 5.037574e-11
1.248495e-08 5.040986e-11
1.255134e-08 5.044444e-11
1.261808e-08 5.047951e-11
1.268518e-08 5.051513e-11
1.275264e-08 5.055132e-11
1.282045e-08 5.058815e-11
1.288863e-08 5.062563e-11
1.295717e-08 5.066382e-11
1.302607e-08 5.070274e-11
1.309534e-08 5.074242e-11
1.316497e-08 5.078290e-11
1.323498e-08 5.082420e-11
1.330536e-08 5.086635e-11
1.337612e-08 5.090936e-11
1.344725e-08 5.095327e-11
1.351875e-08 5.099810e-11
1.359064e-08 5.104383e-11
1.366291e-08 5.109051e-11
1.373557e-08 5.113815e-11
1.380861e-08 5.118675e-11
1.388204e-08 5.123632e-11
1.395586e-08 5.128687e-11
1.403008e-08 5.133842e-11
1.410468e-08 5.139097e-11
1.417969e-08 5.144450e-11
1.425509e-08 5.149904e-11
1.433090e-08 5.155458e-11
1.440710e-08 5.161113e-11
1.448372e-08 5.166867e-11
1.456074e-08 5.172721e-11
1.463817e-08 5.178675e-11
1.471601e-08 5.184728e-11
1.479426e-08 5.190879e-11
1.487293e-08 5.197130e-11
1.495202e-08 5.203479e-11
1.503153e-08 5.209923e-11
1.511147e-08 5.216465e-11
1.519183e-08 5.223101e-11
1.527261e-08 5.229834e-11
1.535383e-08 5.236661e-11
1.543547e-08 5.243580e-11
1.551756e-08 5.250592e-11
1.560007e-08 5.257698e-11
1.568303e-08 5.264893e-11
1.576643e-08 5.272179e-11
1.585027e-08 5.279554e-11
1.593456e-08 5.287016e-11
1.601929e-08 5.294567e-11
1.610448e-08 5.302204e-11
1.619012e-08 5.309927e-11
1.627621e-08 5.317736e-11
1.636276e-08 5.325630e-11
1.644978e-08 5.333606e-11
1.653725e-08 5.341666e-11
1.662519e-08 5.349808e-11
1.671360e-08 5.358032e-11
1.680248e-08 5.366339e-11
1.689183e-08 5.374725e-11
1.698165e-08 5.383192e-11
1.707196e-08 5.391739e-11
1.716274e-08 5.400365e-11
1.725401e-08 5.409069e-11
1.734576e-08 5.417854e-11
1.743800e-08 5.426719e-11
1.753073e-08 5.435661e-11
1.762395e-08 5.444683e-11
1.771767e-08 5.453782e-11
1.781189e-08 5.462961e-11
1.790661e-08 5.472218e-11
1.800183e-08 5.481554e-11
1.809756e-08 5.490970e-11
1.819380e-08 5.500465e-11
1.829055e-08 5.510041e-11
1.838781e-08 5.519696e-11
1.848559e-08 5.529431e-11
1.858389e-08 5.539249e-11
1.868272e-08 5.549147e-11
1.878206e-08 5.559130e-11
1.888194e-08 5.569195e-11
1.898235e-08 5.579342e-11
1.908329e-08 5.589576e-11
1.918477e-08 5.599895e-11
1.928679e-08 5.610300e-11
1.938935e-08 5.620793e-11
1.949246e-08 5.631375e-11
1.959612e-08 5.642045e-11
1.970032e-08 5.652806e-11
1.980508e-08 5.663659e-11
1.991040e-08 5.674603e-11
2.001628e-08 5.685641e-11
2.012272e-08 5.696776e-11
2.022973e-08 5.708005e-11
2.033730e-08 5.719332e-11
2.044545e-08 5.730756e-11
2.055417e-08 5.742280e-11
2.066347e-08 5.753906e-11
2.077336e-08 5.765633e-11
2.088382e-08 5.777465e-11
2.099488e-08 5.789402e-11
2.110652e-08 5.801445e-11
2.121876e-08 5.813594e-11
2.133160e-08 5.825854e-11
2.144503e-08 5.838223e-11
2.155907e-08 5.850705e-11
2.167371e-08 5.863301e-11
2.178897e-08 5.876008e-11
2.190484e-08 5.888834e-11
2.202132e-08 5.901775e-11
2.213842e-08 5.914835e-11
2.225615e-08 5.928015e-11
2.237450e-08 5.941319e-11
2.249348e-08 5.954743e-11
2.261309e-08 5.968291e-11
2.273334e-08 5.981965e-11
2.285423e-08 5.995766e-11
2.297577e-08 6.009695e-11
2.309794e-08 6.023755e-11
2.322077e-08 6.037945e-11
2.334425e-08 6.052268e-11
2.346839e-08 6.066722e-11
2.359319e-08 6.081313e-11
2.371865e-08 6.096041e-11
2.384478e-08 6.110908e-11
2.397158e-08 6.125913e-11
2.409905e-08 6.141062e-11
2.422721e-08 6.156351e-11
2.435604e-08 6.171784e-11
2.448556e-08 6.187361e-11
2.461576e-08 6.203087e-11
2.474666e-08 6.218960e-11
2.487826e-08 6.234983e-11
2.501056e-08 6.251157e-11
2.514355e-08 6.267485e-11
2.527726e-08 6.283966e-11
2.541168e-08 6.300602e-11
2.554681e-08 6.317395e-11
2.568266e-08 6.334351e-11
2.581923e-08 6.351465e-11
2.595653e-08 6.368742e-11
2.609456e-08 6.386182e-11
2.623332e-08 6.403788e-11
2.637283e-08 6.421562e-11
2.651307e-08 6.439504e-11
2.665406e-08 6.457617e-11
2.679580e-08 6.475902e-11
2.693829e-08 6.494361e-11
2.708154e-08 6.512999e-11
2.722555e-08 6.531812e-11
2.737033e-08 6.550803e-11
2.751588e-08 6.569979e-11
2.766220e-08 6.589339e-11
2.780930e-08 6.608885e-11
2.795718e-08 6.628615e-11
2.810585e-08 6.648540e-11
2.825530e-08 6.668653e-11
2.840556e-08 6.688961e-11
2.855661e-08 6.709462e-11
2.870847e-08 6.730164e-11
2.886113e-08 6.751062e-11
2.901461e-08 6.772171e-11
2.916890e-08 6.793477e-11
2.932401e-08 6.814989e-11
2.947994e-08 6.836716e-11
2.963671e-08 6.858649e-11
2.979431e-08 6.880798e-11
2.995275e-08 6.903164e-11
3.011203e-08 6.925745e-11
3.027215e-08 6.948551e-11
3.043313e-08 6.971579e-11
3.059497e-08 6.994833e-11
3.075766e-08 7.018318e-11
3.092122e-08 7.042026e-11
3.108565e-08 7.065977e-11
3.125096e-08 7.090158e-11
3.141714e-08 7.114582e-11
3.158421e-08 7.139244e-11
3.175216e-08 7.164152e-11
3.192101e-08 7.189308e-11
3.209076e-08 7.214714e-11
3.226141e-08 7.240369e-11
3.243297e-08 7.266285e-11
3.260543e-08 7.292460e-11
3.277882e-08 7.318894e-11
3.295313e-08 7.345592e-11
3.312836e-08 7.372563e-11
3.330453e-08 7.399800e-11
3.348164e-08 7.427313e-11
3.365968e-08 7.455106e-11
3.383867e-08 7.483174e-11
3.401862e-08 7.511530e-11
3.419952e-08 7.540171e-11
3.438138e-08 7.569102e-11
3.456421e-08 7.598328e-11
3.474801e-08 7.627858e-11
3.493279e-08 7.657678e-11
3.511856e-08 7.687808e-11
3.530531e-08 7.718245e-11
3.549305e-08 7.748999e-11
3.568179e-08 7.780062e-11
3.587154e-08 7.811449e-11
3.606229e-08 7.843156e-11
3.625406e-08 7.875194e-11
3.644685e-08 7.907560e-11
3.664066e-08 7.940258e-11
3.683551e-08 7.973303e-11
3.703139e-08 8.006687e-11
3.722831e-08 8.040425e-11
3.742628e-08 8.074505e-11
3.762530e-08 8.108946e-11
3.782538e-08 8.143750e-11
3.802653e-08 8.178914e-11
3.822874e-08 8.214450e-11
3.843203e-08 8.250364e-11
3.863640e-08 8.286651e-11
3.884186e-08 8.323324e-11
3.904841e-08 8.360384e-11
3.925606e-08 8.397835e-11
3.946481e-08 8.435687e-11
3.967467e-08 8.473943e-11
3.988565e-08 8.512607e-11
4.009775e-08 8.551685e-11
4.031098e-08 8.591174e-11
4.052534e-08 8.631094e-11
4.074084e-08 8.671444e-11
4.095749e-08 8.712227e-11
4.117529e-08 8.753453e-11
4.139425e-08 8.795120e-11
4.161437e-08 8.837244e-11
4.183566e-08 8.879826e-11
4.205813e-08 8.922867e-11
4.228179e-08 8.966376e-11
4.250663e-08 9.010368e-11
4.273267e-08 9.054839e-11
4.295991e-08 9.099790e-11
4.318836e-08 9.145247e-11
4.341802e-08 9.191204e-11
4.364890e-08 9.237662e-11
4.388101e-08 9.284637e-11
4.411436e-08 9.332135e-11
4.434895e-08 9.380160e-11
4.458478e-08 9.428722e-11
4.482187e-08 9.477817e-11
4.506022e-08 9.527475e-11
4.529984e-08 9.577683e-11
4.554073e-08 9.628457e-11
4.578290e-08 9.679806e-11
4.602636e-08 9.731735e-11
4.627112e-08 9.784249e-11
4.651717e-08 9.837355e-11
4.676454e-08 9.891064e-11
4.701322e-08 9.945396e-11
4.726322e-08 1.000034e-10
4.751455e-08 1.005592e-10
4.776722e-08 1.011213e-10
4.802124e-08 1.016899e-10
4.827660e-08 1.022650e-10
4.853332e-08 1.028469e-10
4.879141e-08 1.034354e-10
4.905086e-08 1.040308e-10
4.931170e-08 1.046330e-10
4.957393e-08 1.052424e-10
4.983755e-08 1.058588e-10
5.010257e-08 1.064825e-10
5.036900e-08 1.071136e-10
5.063685e-08 1.077520e-10
5.090612e-08 1.083979e-10
5.117682e-08 1.090516e-10
5.144897e-08 1.097129e-10
5.172256e-08 1.103822e-10
5.199760e-08 1.110594e-10
5.227411e-08 1.117447e-10
5.255209e-08 1.124382e-10
5.283155e-08 1.131401e-10
5.311249e-08 1.138504e-10
5.339493e-08 1.145692e-10
5.367887e-08 1.152970e-10
5.396431e-08 1.160333e-10
5.425128e-08 1.167787e-10
5.453977e-08 1.175332e-10
5.482980e-08 1.182968e-10
5.512137e-08 1.190699e-10
5.541449e-08 1.198526e-10
5.570917e-08 1.206447e-10
5.600541e-08 1.214466e-10
5.630323e-08 1.222586e-10
5.660264e-08 1.230807e-10
5.690363e-08 1.239129e-10
5.720623e-08 1.247556e-10
5.751044e-08 1.256087e-10
