# Counting axions with IAXO \cite{} by B. Grinstein, C. Miro and P. Quilez
# # Hierarchical g_discovery of 2 axions (profile likelihood) as a function of m2
# # m2_vals[eV]    g_disc[GeV^-1]    m_hat[eV]    q0_over_g4[GeV^-4]
1.000000e-03 1.970741e-08 8.406976e-04 5.966562e+31
1.054976e-03 1.634962e-08 8.868224e-04 1.259540e+32
1.112975e-03 1.165477e-08 9.357634e-04 4.877834e+32
1.174162e-03 1.064895e-08 9.868444e-04 6.998664e+32
1.238714e-03 8.492904e-09 1.041032e-03 1.729886e+33
1.306814e-03 6.965373e-09 1.097962e-03 3.823534e+33
1.378657e-03 5.556116e-09 1.157667e-03 9.444030e+33
1.454451e-03 4.553511e-09 1.221222e-03 2.093423e+34
1.534411e-03 3.664615e-09 1.288219e-03 4.990326e+34
1.618768e-03 2.944100e-09 1.357711e-03 1.197933e+35
1.707762e-03 2.390620e-09 1.432515e-03 2.755500e+35
1.801648e-03 1.932648e-09 1.509426e-03 6.451069e+35
1.900696e-03 1.564425e-09 1.591766e-03 1.502531e+36
2.005190e-03 1.264205e-09 1.677441e-03 3.523482e+36
2.115428e-03 1.021508e-09 1.767620e-03 8.265624e+36
2.231726e-03 8.258216e-10 1.861776e-03 1.935074e+37
2.354418e-03 6.678292e-10 1.960603e-03 4.524608e+37
2.483856e-03 5.403864e-10 2.063816e-03 1.055419e+38
2.620409e-03 4.377043e-10 2.171076e-03 2.451993e+38
2.764470e-03 3.550187e-10 2.282047e-03 5.665491e+38
2.916450e-03 2.884717e-10 2.395796e-03 1.299660e+39
3.076786e-03 2.350407e-10 2.515035e-03 2.948971e+39
3.245936e-03 1.922518e-10 2.634972e-03 6.588115e+39
3.424386e-03 1.581157e-10 2.758296e-03 1.439934e+40
3.612646e-03 1.310048e-10 2.881119e-03 3.055577e+40
3.811257e-03 1.095751e-10 3.006315e-03 6.243020e+40
4.020786e-03 9.268517e-11 3.130698e-03 1.219556e+41
4.241834e-03 7.936802e-11 3.251952e-03 2.268090e+41
4.475034e-03 6.880092e-11 3.371527e-03 4.016665e+41
4.721055e-03 6.030700e-11 3.490789e-03 6.804114e+41
4.980602e-03 5.337473e-11 3.613360e-03 1.108919e+42
5.254417e-03 4.791187e-11 3.821697e-03 1.707930e+42
5.543286e-03 4.366684e-11 4.012513e-03 2.475344e+42
5.848035e-03 3.999757e-11 4.196234e-03 3.516478e+42
6.169539e-03 3.675407e-11 4.379916e-03 4.931972e+42
6.508718e-03 3.385980e-11 4.562237e-03 6.847076e+42
6.866544e-03 3.126387e-11 4.745286e-03 9.420446e+42
7.244041e-03 2.893112e-11 4.925019e-03 1.284641e+43
7.642292e-03 2.683521e-11 5.100787e-03 1.735493e+43
8.062438e-03 2.496217e-11 5.281440e-03 2.317997e+43
8.505681e-03 2.329742e-11 5.458532e-03 3.055000e+43
8.973292e-03 2.181617e-11 5.618077e-03 3.973090e+43
9.466611e-03 2.050174e-11 5.760346e-03 5.094240e+43
9.987051e-03 1.934171e-11 5.887276e-03 6.430771e+43
1.053610e-02 1.832562e-11 5.992209e-03 7.980090e+43
1.111534e-02 1.744591e-11 6.064036e-03 9.715567e+43
1.172642e-02 1.669845e-11 6.097378e-03 1.157545e+44
1.237110e-02 1.607981e-11 6.094098e-03 1.346229e+44
1.305121e-02 1.558794e-11 6.043391e-03 1.524359e+44
1.376872e-02 1.522401e-11 5.945567e-03 1.675430e+44
1.452568e-02 1.499092e-11 5.792754e-03 1.782090e+44
1.532425e-02 1.489457e-11 5.593984e-03 1.828648e+44
1.616672e-02 1.494442e-11 5.341164e-03 1.804374e+44
1.705550e-02 1.515480e-11 5.044212e-03 1.706246e+44
1.799315e-02 1.554307e-11 4.738319e-03 1.542039e+44
1.898235e-02 1.613515e-11 4.394006e-03 1.327855e+44
2.002593e-02 1.696791e-11 4.020792e-03 1.085749e+44
2.112688e-02 1.809431e-11 3.569288e-03 8.396033e+43
2.228836e-02 1.957442e-11 3.343340e-03 6.130373e+43
2.351370e-02 2.148850e-11 3.104969e-03 4.221027e+43
2.480639e-02 2.394894e-11 2.868631e-03 2.735883e+43
2.617016e-02 2.709470e-11 2.645928e-03 1.669956e+43
2.760890e-02 3.108113e-11 2.448221e-03 9.643964e+42
2.912674e-02 3.603629e-11 2.283594e-03 5.336818e+42
3.072802e-02 4.194840e-11 2.150178e-03 2.906571e+42
3.241733e-02 4.848991e-11 2.044667e-03 1.627934e+42
3.419952e-02 5.499426e-11 1.952855e-03 9.839499e+41
3.607968e-02 6.091469e-11 1.869321e-03 6.536637e+41
3.806321e-02 6.637176e-11 1.784118e-03 4.637771e+41
4.015579e-02 7.201231e-11 1.698326e-03 3.346690e+41
4.236341e-02 7.852402e-11 1.610545e-03 2.367187e+41
4.469240e-02 8.639878e-11 1.525119e-03 1.615147e+41
4.714942e-02 9.589448e-11 1.442454e-03 1.064310e+41
4.974152e-02 1.070257e-10 1.366241e-03 6.859463e+40
5.247613e-02 1.196094e-10 1.294342e-03 4.397249e+40
5.536108e-02 1.334898e-10 1.226645e-03 2.834329e+40
5.840463e-02 1.487929e-10 1.162861e-03 1.836173e+40
6.161550e-02 1.657287e-10 1.102327e-03 1.193032e+40
6.500290e-02 1.842550e-10 1.045094e-03 7.808452e+39
6.857652e-02 2.046666e-10 9.904598e-04 5.129260e+39
7.234661e-02 2.276189e-10 9.388820e-04 3.352814e+39
7.632396e-02 2.535161e-10 8.898131e-04 2.178815e+39
8.051998e-02 2.827329e-10 8.433861e-04 1.408437e+39
8.494667e-02 3.142877e-10 7.994929e-04 9.224289e+38
8.961673e-02 3.495482e-10 7.577907e-04 6.028567e+38
9.454353e-02 3.898719e-10 7.181523e-04 3.895425e+38
9.974119e-02 4.335298e-10 6.806599e-04 2.547808e+38
1.052246e-01 4.828960e-10 6.452310e-04 1.655115e+38
1.110095e-01 5.376324e-10 6.117661e-04 1.077211e+38
1.171124e-01 5.989966e-10 5.797332e-04 6.991095e+37
1.235508e-01 6.666269e-10 5.496758e-04 4.557338e+37
1.303431e-01 7.431042e-10 5.209321e-04 2.951506e+37
1.375089e-01 8.280661e-10 5.000000e-04 1.914179e+37
1.450687e-01 9.220664e-10 5.000000e-04 1.245070e+37
1.530440e-01 1.026398e-09 5.000000e-04 8.109225e+36
1.614578e-01 1.141614e-09 5.000000e-04 5.298644e+36
1.703342e-01 1.267298e-09 5.000000e-04 3.489213e+36
1.796985e-01 1.401551e-09 5.000000e-04 2.332418e+36
1.895777e-01 1.543092e-09 5.000000e-04 1.587359e+36
2.000000e-01 1.686036e-09 5.000000e-04 1.113718e+36
