# Counting axions with IAXO \cite{} by B. Grinstein, C. Miro and P. Quilez
# # Hierarchical g_discovery of 2 axions (profile likelihood) as a function of m2
# # m2_vals[eV]    g_disc[GeV^-1]    m_hat[eV]    q0_over_g4[GeV^-4]
1.000000e-03 3.359455e-08 8.408268e-04 7.065894e+30
1.054976e-03 2.812102e-08 8.869906e-04 1.439190e+31
1.112975e-03 2.051684e-08 9.357634e-04 5.079259e+31
1.174162e-03 1.709787e-08 9.871314e-04 1.053111e+32
1.238714e-03 1.323674e-08 1.041408e-03 2.931693e+32
1.306814e-03 1.144370e-08 1.098456e-03 5.247784e+32
1.378657e-03 8.869052e-09 1.158327e-03 1.454567e+33
1.454451e-03 7.525511e-09 1.221998e-03 2.806071e+33
1.534411e-03 6.032068e-09 1.289305e-03 6.797944e+33
1.618768e-03 4.771627e-09 1.359162e-03 1.736107e+34
1.707762e-03 4.001225e-09 1.434012e-03 3.511320e+34
1.801648e-03 3.180810e-09 1.512866e-03 8.792078e+34
1.900696e-03 2.588959e-09 1.594239e-03 2.003282e+35
2.005190e-03 2.117385e-09 1.681573e-03 4.477581e+35
2.115428e-03 1.713139e-09 1.773196e-03 1.044893e+36
2.231726e-03 1.388008e-09 1.869303e-03 2.424792e+36
2.354418e-03 1.125721e-09 1.970260e-03 5.604284e+36
2.483856e-03 9.142148e-10 2.076127e-03 1.288397e+37
2.620409e-03 7.427880e-10 2.185977e-03 2.956535e+37
2.764470e-03 6.048693e-10 2.302030e-03 6.723515e+37
2.916450e-03 4.939234e-10 2.424028e-03 1.512182e+38
3.076786e-03 4.041646e-10 2.552036e-03 3.372945e+38
3.245936e-03 3.317050e-10 2.684038e-03 7.434204e+38
3.424386e-03 2.732366e-10 2.823016e-03 1.614681e+39
3.612646e-03 2.261546e-10 2.965458e-03 3.440493e+39
3.811257e-03 1.881585e-10 3.114774e-03 7.180378e+39
4.020786e-03 1.575097e-10 3.267538e-03 1.462222e+40
4.241834e-03 1.327256e-10 3.426564e-03 2.900174e+40
4.475034e-03 1.126203e-10 3.591291e-03 5.594690e+40
4.721055e-03 9.622313e-11 3.761603e-03 1.049843e+41
4.980602e-03 8.276105e-11 3.934697e-03 1.918397e+41
5.254417e-03 7.163666e-11 4.113382e-03 3.417443e+41
5.543286e-03 6.239730e-11 4.297066e-03 5.937166e+41
5.848035e-03 5.469662e-11 4.482504e-03 1.005543e+42
6.169539e-03 4.825794e-11 4.668026e-03 1.659462e+42
6.508718e-03 4.285563e-11 4.857415e-03 2.668154e+42
6.866544e-03 3.830849e-11 5.046676e-03 4.178902e+42
7.244041e-03 3.446816e-11 5.233744e-03 6.376318e+42
7.642292e-03 3.121176e-11 5.423832e-03 9.483521e+42
8.062438e-03 2.843894e-11 5.608774e-03 1.375906e+43
8.505681e-03 2.606834e-11 5.791876e-03 1.948899e+43
8.973292e-03 2.403518e-11 5.964584e-03 2.696827e+43
9.466611e-03 2.228827e-11 6.124199e-03 3.647011e+43
9.987051e-03 2.078743e-11 6.266936e-03 4.819916e+43
1.053610e-02 1.950144e-11 6.390909e-03 6.222661e+43
1.111534e-02 1.840655e-11 6.481373e-03 7.840662e+43
1.172642e-02 1.748527e-11 6.535604e-03 9.628377e+43
1.237110e-02 1.672531e-11 6.548249e-03 1.150127e+44
1.305121e-02 1.611877e-11 6.512528e-03 1.333261e+44
1.376872e-02 1.566156e-11 6.425330e-03 1.495901e+44
1.452568e-02 1.535311e-11 6.281590e-03 1.619785e+44
1.532425e-02 1.519635e-11 6.092334e-03 1.687663e+44
1.616672e-02 1.519789e-11 5.856561e-03 1.686977e+44
1.705550e-02 1.536872e-11 5.586941e-03 1.613212e+44
1.799315e-02 1.572552e-11 5.285943e-03 1.471712e+44
1.898235e-02 1.629249e-11 4.972959e-03 1.277299e+44
2.002593e-02 1.710391e-11 4.639072e-03 1.051625e+44
2.112688e-02 1.820725e-11 4.300874e-03 8.189641e+43
2.228836e-02 1.966696e-11 3.957601e-03 6.015803e+43
2.351370e-02 2.156882e-11 3.626356e-03 4.158504e+43
2.480639e-02 2.402456e-11 3.315048e-03 2.701600e+43
2.617016e-02 2.717387e-11 3.036999e-03 1.650580e+43
2.760890e-02 3.117502e-11 2.796898e-03 9.528301e+42
2.912674e-02 3.616225e-11 2.599202e-03 5.262847e+42
3.072802e-02 4.213298e-11 2.443827e-03 2.855971e+42
3.241733e-02 4.876509e-11 2.321187e-03 1.591499e+42
3.419952e-02 5.537815e-11 2.215492e-03 9.569489e+41
3.607968e-02 6.139404e-11 2.118281e-03 6.334870e+41
3.806321e-02 6.691982e-11 2.021449e-03 4.487697e+41
4.015579e-02 7.262016e-11 1.922922e-03 3.236039e+41
4.236341e-02 7.921132e-11 1.821821e-03 2.286091e+41
4.469240e-02 8.721203e-11 1.725163e-03 1.555739e+41
4.714942e-02 9.690445e-11 1.631337e-03 1.020628e+41
4.974152e-02 1.083225e-10 1.543612e-03 6.536850e+40
5.247613e-02 1.212924e-10 1.461776e-03 4.158227e+40
5.536108e-02 1.356656e-10 1.385853e-03 2.656826e+40
5.840463e-02 1.515931e-10 1.313482e-03 1.704217e+40
6.161550e-02 1.693106e-10 1.244670e-03 1.095232e+40
6.500290e-02 1.887739e-10 1.179892e-03 7.087198e+39
6.857652e-02 2.103379e-10 1.118547e-03 4.598037e+39
7.234661e-02 2.347754e-10 1.060126e-03 2.962322e+39
7.632396e-02 2.626049e-10 1.004867e-03 1.892480e+39
8.051998e-02 2.943013e-10 9.522904e-04 1.199703e+39
8.494667e-02 3.286775e-10 9.024622e-04 7.711923e+38
8.961673e-02 3.674607e-10 8.557080e-04 4.936269e+38
9.454353e-02 4.124250e-10 8.108165e-04 3.110731e+38
9.974119e-02 4.612489e-10 7.686028e-04 1.988388e+38
1.052246e-01 5.171993e-10 7.285817e-04 1.257797e+38
1.110095e-01 5.795876e-10 6.905349e-04 7.975653e+37
1.171124e-01 6.503411e-10 6.546369e-04 5.031272e+37
1.235508e-01 7.284634e-10 6.201976e-04 3.196035e+37
1.303431e-01 8.178288e-10 5.880411e-04 2.011837e+37
1.375089e-01 9.175720e-10 5.572052e-04 1.269644e+37
1.450687e-01 1.028406e-09 5.283382e-04 8.046077e+36
1.530440e-01 1.152661e-09 5.009550e-04 5.098422e+36
1.614578e-01 1.291331e-09 5.000000e-04 3.236628e+36
1.703342e-01 1.443258e-09 5.000000e-04 2.074278e+36
1.796985e-01 1.605700e-09 5.000000e-04 1.353893e+36
1.895777e-01 1.777870e-09 5.000000e-04 9.008298e+35
2.000000e-01 1.950380e-09 5.000000e-04 6.219639e+35
