# sqrt(Delta_m21^2) [eV]    g_CAST [GeV^-1]    g_IAXO [GeV^-1]    g_IAXOplus [GeV^-1]
1.000000e-03 6.932774e-11 4.552915e-12 2.829653e-12
1.047616e-03 6.932775e-11 4.552920e-12 2.829657e-12
1.097499e-03 6.932777e-11 4.552925e-12 2.829661e-12
1.149757e-03 6.932779e-11 4.552932e-12 2.829666e-12
1.204504e-03 6.932782e-11 4.552940e-12 2.829672e-12
1.261857e-03 6.932785e-11 4.552949e-12 2.829679e-12
1.321941e-03 6.932789e-11 4.552961e-12 2.829688e-12
1.384886e-03 6.932793e-11 4.552975e-12 2.829699e-12
1.450829e-03 6.932799e-11 4.552992e-12 2.829711e-12
1.519911e-03 6.932806e-11 4.553013e-12 2.829727e-12
1.592283e-03 6.932814e-11 4.553037e-12 2.829745e-12
1.668101e-03 6.932823e-11 4.553067e-12 2.829767e-12
1.747528e-03 6.932835e-11 4.553102e-12 2.829794e-12
1.830738e-03 6.932849e-11 4.553145e-12 2.829826e-12
1.917910e-03 6.932866e-11 4.553196e-12 2.829865e-12
2.009233e-03 6.932886e-11 4.553258e-12 2.829911e-12
2.104904e-03 6.932911e-11 4.553332e-12 2.829967e-12
2.205131e-03 6.932940e-11 4.553421e-12 2.830034e-12
2.310130e-03 6.932976e-11 4.553529e-12 2.830114e-12
2.420128e-03 6.933018e-11 4.553657e-12 2.830211e-12
2.535364e-03 6.933070e-11 4.553812e-12 2.830326e-12
2.656088e-03 6.933132e-11 4.553997e-12 2.830465e-12
2.782559e-03 6.933206e-11 4.554220e-12 2.830631e-12
2.915053e-03 6.933295e-11 4.554486e-12 2.830830e-12
3.053856e-03 6.933403e-11 4.554804e-12 2.831068e-12
3.199267e-03 6.933532e-11 4.555186e-12 2.831353e-12
3.351603e-03 6.933687e-11 4.555642e-12 2.831693e-12
3.511192e-03 6.933874e-11 4.556186e-12 2.832099e-12
3.678380e-03 6.934097e-11 4.556837e-12 2.832583e-12
3.853529e-03 6.934366e-11 4.557613e-12 2.833160e-12
4.037017e-03 6.934688e-11 4.558537e-12 2.833847e-12
4.229243e-03 6.935073e-11 4.559637e-12 2.834663e-12
4.430621e-03 6.935535e-11 4.560945e-12 2.835630e-12
4.641589e-03 6.936087e-11 4.562495e-12 2.836776e-12
4.862602e-03 6.936748e-11 4.564332e-12 2.838131e-12
5.094138e-03 6.937538e-11 4.566502e-12 2.839730e-12
5.336699e-03 6.938481e-11 4.569064e-12 2.841613e-12
5.590810e-03 6.939606e-11 4.572083e-12 2.843828e-12
5.857021e-03 6.940947e-11 4.575633e-12 2.846427e-12
6.135907e-03 6.942544e-11 4.579797e-12 2.849467e-12
6.428073e-03 6.944442e-11 4.584671e-12 2.853014e-12
6.734151e-03 6.946695e-11 4.590357e-12 2.857142e-12
7.054802e-03 6.949364e-11 4.596974e-12 2.861930e-12
7.390722e-03 6.952520e-11 4.604651e-12 2.867470e-12
7.742637e-03 6.956246e-11 4.613532e-12 2.873856e-12
8.111308e-03 6.960639e-11 4.623773e-12 2.881190e-12
8.497534e-03 6.965809e-11 4.635533e-12 2.889575e-12
8.902151e-03 6.971878e-11 4.648982e-12 2.899126e-12
9.326033e-03 6.978984e-11 4.664301e-12 2.909958e-12
9.770100e-03 6.987283e-11 4.681677e-12 2.922177e-12
1.023531e-02 6.996948e-11 4.701281e-12 2.935883e-12
1.072267e-02 7.008169e-11 4.723274e-12 2.951170e-12
1.123324e-02 7.021162e-11 4.747807e-12 2.968114e-12
1.176812e-02 7.036159e-11 4.775003e-12 2.986749e-12
1.232847e-02 7.053401e-11 4.804921e-12 3.007079e-12
1.291550e-02 7.073141e-11 4.837565e-12 3.029070e-12
1.353048e-02 7.095650e-11 4.872885e-12 3.052601e-12
1.417474e-02 7.121215e-11 4.910689e-12 3.077496e-12
1.484968e-02 7.150102e-11 4.950696e-12 3.103498e-12
1.555676e-02 7.182559e-11 4.992496e-12 3.130236e-12
1.629751e-02 7.218824e-11 5.035496e-12 3.157292e-12
1.707353e-02 7.259100e-11 5.079025e-12 3.184125e-12
1.788650e-02 7.303505e-11 5.122220e-12 3.210188e-12
1.873817e-02 7.352064e-11 5.164197e-12 3.234881e-12
1.963041e-02 7.404740e-11 5.203993e-12 3.257667e-12
2.056512e-02 7.461296e-11 5.240741e-12 3.278066e-12
2.154435e-02 7.521335e-11 5.273664e-12 3.295779e-12
2.257020e-02 7.584310e-11 5.302274e-12 3.310615e-12
2.364489e-02 7.649381e-11 5.326258e-12 3.322640e-12
2.477076e-02 7.715553e-11 5.345717e-12 3.332045e-12
2.595024e-02 7.781612e-11 5.360945e-12 3.339157e-12
2.718588e-02 7.846178e-11 5.372470e-12 3.344420e-12
2.848036e-02 7.907849e-11 5.381004e-12 3.348271e-12
2.983647e-02 7.965201e-11 5.387248e-12 3.351105e-12
3.125716e-02 8.017061e-11 5.391840e-12 3.353261e-12
3.274549e-02 8.062494e-11 5.395328e-12 3.354995e-12
3.430469e-02 8.100972e-11 5.398132e-12 3.356467e-12
3.593814e-02 8.132497e-11 5.400509e-12 3.357757e-12
3.764936e-02 8.157367e-11 5.402592e-12 3.358905e-12
3.944206e-02 8.176387e-11 5.404444e-12 3.359912e-12
4.132012e-02 8.190561e-11 5.406069e-12 3.360786e-12
4.328761e-02 8.200914e-11 5.407479e-12 3.361521e-12
4.534879e-02 8.208489e-11 5.408668e-12 3.362126e-12
4.750810e-02 8.214201e-11 5.409650e-12 3.362616e-12
4.977024e-02 8.218720e-11 5.410441e-12 3.363033e-12
5.214008e-02 8.222503e-11 5.411111e-12 3.363373e-12
5.462277e-02 8.225796e-11 5.411665e-12 3.363647e-12
5.722368e-02 8.228702e-11 5.412104e-12 3.363883e-12
5.994843e-02 8.231272e-11 5.412491e-12 3.364079e-12
6.280291e-02 8.233488e-11 5.412801e-12 3.364232e-12
6.579332e-02 8.235383e-11 5.413052e-12 3.364367e-12
6.892612e-02 8.236971e-11 5.413272e-12 3.364483e-12
7.220809e-02 8.238278e-11 5.413462e-12 3.364577e-12
7.564633e-02 8.239316e-11 5.413612e-12 3.364652e-12
7.924829e-02 8.240205e-11 5.413734e-12 3.364712e-12
8.302176e-02 8.240933e-11 5.413828e-12 3.364763e-12
8.697490e-02 8.241534e-11 5.413909e-12 3.364813e-12
9.111628e-02 8.242033e-11 5.413990e-12 3.364843e-12
9.545485e-02 8.242470e-11 5.414042e-12 3.364879e-12
1.000000e-01 8.242804e-11 5.414097e-12 3.364899e-12
1.000000e4 8.242804e-11 5.414097e-12 3.364899e-12
