# Counting axions with IAXO \cite{} by B. Grinstein, C. Miró and P. Quílez 
# sqrt(Delta_m21^2) [eV]    g_CAST [GeV^-1]    g_IAXO [GeV^-1]
1.000000000000000021e-22 5.660354365844777491e-11 3.828615312811584172e-12
1.000000000000000021e-08 5.660354365844777491e-11 3.828615312811584172e-12
1.000691083300460858e-08 5.660354637566862669e-11 3.828615496421985150e-12
1.001382644197049953e-08 5.660354910036839320e-11 3.828615680537795906e-12
1.002074683019825937e-08 5.660355183256757302e-11 3.828615865160400997e-12
1.002767200099075577e-08 5.660355457228670995e-11 3.828616050291187406e-12
1.003460195765313941e-08 5.660355731954639303e-11 3.828616235931548576e-12
1.004153670349284565e-08 5.660356007436728239e-11 3.828616422082878760e-12
1.004847624181959616e-08 5.660356283677007694e-11 3.828616608746578670e-12
1.005542057594539566e-08 5.660356560677554019e-11 3.828616795924051445e-12
1.006236970918454179e-08 5.660356838440448738e-11 3.828616983616703452e-12
1.006932364485362349e-08 5.660357116967779834e-11 3.828617171825946716e-12
1.007628238627151768e-08 5.660357396261641110e-11 3.828617360553194875e-12
1.008324593675939754e-08 5.660357676324130244e-11 3.828617549799868030e-12
1.009021429964073247e-08 5.660357957157353960e-11 3.828617739567387090e-12
1.009718747824128487e-08 5.660358238763420277e-11 3.828617929857178618e-12
1.010416547588912162e-08 5.660358521144446907e-11 3.828618120670674025e-12
1.011114829591460257e-08 5.660358804302554147e-11 3.828618312009306336e-12
1.011813594165041359e-08 5.660359088239870693e-11 3.828618503874514232e-12
1.012512841643148055e-08 5.660359372958530414e-11 3.828618696267738008e-12
1.013212572359509838e-08 5.660359658460671054e-11 3.828618889190425231e-12
1.013912786648084501e-08 5.660359944748437467e-11 3.828619082644025082e-12
1.014613484843060789e-08 5.660360231823980968e-11 3.828619276629991591e-12
1.015314667278858227e-08 5.660360519689458690e-11 3.828619471149781207e-12
1.016016334290127787e-08 5.660360808347032288e-11 3.828619666204856039e-12
1.016718486211751059e-08 5.660361097798870527e-11 3.828619861796681423e-12
1.017421123378841903e-08 5.660361388047146693e-11 3.828620057926727544e-12
1.018124246126745296e-08 5.660361679094042476e-11 3.828620254596467010e-12
1.018827854791037825e-08 5.660361970941741504e-11 3.828620451807377274e-12
1.019531949707528348e-08 5.660362263592437744e-11 3.828620649560940638e-12
1.020236531212257501e-08 5.660362557048327748e-11 3.828620847858641827e-12
1.020941599641498357e-08 5.660362851311615823e-11 3.828621046701971220e-12
1.021647155331756590e-08 5.660363146384511447e-11 3.828621246092420811e-12
1.022353198619769653e-08 5.660363442269230557e-11 3.828621446031489865e-12
1.023059729842508594e-08 5.660363738967995557e-11 3.828621646520678456e-12
1.023766749337176732e-08 5.660364036483033372e-11 3.828621847561493925e-12
1.024474257441210818e-08 5.660364334816578035e-11 3.828622049155445232e-12
1.025182254492280537e-08 5.660364633970868750e-11 3.828622251304046180e-12
1.025890740828289002e-08 5.660364933948153768e-11 3.828622454008814616e-12
1.026599716787372926e-08 5.660365234750681340e-11 3.828622657271274036e-12
1.027309182707902448e-08 5.660365536380712642e-11 3.828622861092948748e-12
1.028019138928482133e-08 5.660365838840510789e-11 3.828623065475369520e-12
1.028729585787949809e-08 5.660366142132347296e-11 3.828623270420071968e-12
1.029440523625377895e-08 5.660366446258496263e-11 3.828623475928594939e-12
1.030151952780073064e-08 5.660366751221242130e-11 3.828623682002479703e-12
1.030863873591576580e-08 5.660367057022874509e-11 3.828623888643273992e-12
1.031576286399664129e-08 5.660367363665686885e-11 3.828624095852529577e-12
1.032289191544346482e-08 5.660367671151981795e-11 3.828624303631801462e-12
1.033002589365869000e-08 5.660367979484065003e-11 3.828624511982648688e-12
1.033716480204712621e-08 5.660368288664251970e-11 3.828624720906635951e-12
1.034430864401593371e-08 5.660368598694862678e-11 3.828624930405331986e-12
1.035145742297464843e-08 5.660368909578222281e-11 3.828625140480307952e-12
1.035861114233509755e-08 5.660369221316664333e-11 3.828625351133140662e-12
1.036576980551153359e-08 5.660369533912528203e-11 3.828625562365410967e-12
1.037293341592054334e-08 5.660369847368157140e-11 3.828625774178704567e-12
1.038010197698107934e-08 5.660370161685905376e-11 3.828625986574611198e-12
1.038727549211445160e-08 5.660370476868129085e-11 3.828626199554723024e-12
1.039445396474433915e-08 5.660370792917193485e-11 3.828626413120640281e-12
1.040163739829678349e-08 5.660371109835469613e-11 3.828626627273963211e-12
1.040882579620019679e-08 5.660371427625334320e-11 3.828626842016300128e-12
1.041601916188535695e-08 5.660371746289170275e-11 3.828627057349261775e-12
1.042321749878541591e-08 5.660372065829369191e-11 3.828627273274463737e-12
1.043042081033589958e-08 5.660372386248326663e-11 3.828627489793524834e-12
1.043762909997470129e-08 5.660372707548445390e-11 3.828627706908070345e-12
1.044484237114209996e-08 5.660373029732135830e-11 3.828627924619729591e-12
1.045206062728074187e-08 5.660373352801814900e-11 3.828628142930133507e-12
1.045928387183566057e-08 5.660373676759902750e-11 3.828628361840921106e-12
1.046651210825426692e-08 5.660374001608830516e-11 3.828628581353733824e-12
1.047374533998635242e-08 5.660374327351033210e-11 3.828628801470217945e-12
1.048098357048409743e-08 5.660374653988952308e-11 3.828629022192024599e-12
1.048822680320206464e-08 5.660374981525039624e-11 3.828629243520808146e-12
1.049547504159720394e-08 5.660375309961747621e-11 3.828629465458229412e-12
1.050272828912885579e-08 5.660375639301539744e-11 3.828629688005952449e-12
1.050998654925875120e-08 5.660375969546885259e-11 3.828629911165645353e-12
1.051724982545101175e-08 5.660376300700259244e-11 3.828630134938981871e-12
1.052451812117215615e-08 5.660376632764143886e-11 3.828630359327639790e-12
1.053179143989109701e-08 5.660376965741027838e-11 3.828630584333300937e-12
1.053906978507914242e-08 5.660377299633407503e-11 3.828630809957652793e-12
1.054635316021000265e-08 5.660377634443786396e-11 3.828631036202386877e-12
1.055364156875978673e-08 5.660377970174670616e-11 3.828631263069198748e-12
1.056093501420700589e-08 5.660378306828579185e-11 3.828631490559788811e-12
1.056823350003257840e-08 5.660378644408033067e-11 3.828631718675862319e-12
1.057553702971982138e-08 5.660378982915563562e-11 3.828631947419130178e-12
1.058284560675446732e-08 5.660379322353705205e-11 3.828632176791305719e-12
1.059015923462465249e-08 5.660379662725002867e-11 3.828632406794108734e-12
1.059747791682094341e-08 5.660380004032005946e-11 3.828632637429262247e-12
1.060480165683626243e-08 5.660380346277271593e-11 3.828632868698494128e-12
1.061213045816600184e-08 5.660380689463364068e-11 3.828633100603538709e-12
1.061946432430795277e-08 5.660381033592854738e-11 3.828633333146134364e-12
1.062680325876232170e-08 5.660381378668321436e-11 3.828633566328021078e-12
1.063414726503173711e-08 5.660381724692347807e-11 3.828633800150947726e-12
1.064149634662124119e-08 5.660382071667526547e-11 3.828634034616666411e-12
1.064885050703830803e-08 5.660382419596457457e-11 3.828634269726933276e-12
1.065620974979282711e-08 5.660382768481744865e-11 3.828634505483508505e-12
1.066357407839711649e-08 5.660383118326002791e-11 3.828634741888160356e-12
1.067094349636592450e-08 5.660383469131849777e-11 3.828634978942658706e-12
1.067831800721642476e-08 5.660383820901915355e-11 3.828635216648779085e-12
1.068569761446822280e-08 5.660384173638831637e-11 3.828635455008302677e-12
1.069308232164335605e-08 5.660384527345240433e-11 3.828635694023013899e-12
1.070047213226629718e-08 5.660384882023790658e-11 3.828635933694703629e-12
1.070786704986395407e-08 5.660385237677137693e-11 3.828636174025165977e-12
1.071526707796567147e-08 5.660385594307944024e-11 3.828636415016201514e-12
1.072267222010323267e-08 5.660385951918879248e-11 3.828636656669614851e-12
1.073008247981086113e-08 5.660386310512621362e-11 3.828636898987215446e-12
1.073749786062522712e-08 5.660386670091855472e-11 3.828637141970817603e-12
1.074491836608543943e-08 5.660387030659271853e-11 3.828637385622241281e-12
1.075234399973305697e-08 5.660387392217569182e-11 3.828637629943309670e-12
1.075977476511208213e-08 5.660387754769455184e-11 3.828637874935853231e-12
1.076721066576897238e-08 5.660388118317641459e-11 3.828638120601705654e-12
1.077465170525263032e-08 5.660388482864850596e-11 3.828638366942705478e-12
1.078209788711441200e-08 5.660388848413810351e-11 3.828638613960697704e-12
1.078954921490813182e-08 5.660389214967255591e-11 3.828638861657529755e-12
1.079700569219005596e-08 5.660389582527930228e-11 3.828639110035057941e-12
1.080446732251891062e-08 5.660389951098584638e-11 3.828639359095140187e-12
1.081193410945587875e-08 5.660390320681975013e-11 3.828639608839640072e-12
1.081940605656460662e-08 5.660390691280868530e-11 3.828639859270427640e-12
1.082688316741120386e-08 5.660391062898036891e-11 3.828640110389376163e-12
1.083436544556424343e-08 5.660391435536260199e-11 3.828640362198366185e-12
1.084185289459478481e-08 5.660391809198326955e-11 3.828640614699280672e-12
1.084934551807629292e-08 5.660392183887031480e-11 3.828640867894009054e-12
1.085684331958476714e-08 5.660392559605177788e-11 3.828641121784447222e-12
1.086434630269865202e-08 5.660392936355575060e-11 3.828641376372493492e-12
1.087185447099887033e-08 5.660393314141040235e-11 3.828641631660052639e-12
1.087936782806881977e-08 5.660393692964401236e-11 3.828641887649035096e-12
1.088688637749436966e-08 5.660394072828490511e-11 3.828642144341355335e-12
1.089441012286387085e-08 5.660394453736148262e-11 3.828642401738934287e-12
1.090193906776815409e-08 5.660394835690222445e-11 3.828642659843696925e-12
1.090947321580053166e-08 5.660395218693571358e-11 3.828642918657573068e-12
1.091701257055679574e-08 5.660395602749055883e-11 3.828643178182500612e-12
1.092455713563522996e-08 5.660395987859550471e-11 3.828643438420418263e-12
1.093210691463659786e-08 5.660396374027932807e-11 3.828643699373273610e-12
1.093966191116415608e-08 5.660396761257090269e-11 3.828643961043018283e-12
1.094722212882365109e-08 5.660397149549917341e-11 3.828644223431607950e-12
1.095478757122331586e-08 5.660397538909317557e-11 3.828644486541005549e-12
1.096235824197388475e-08 5.660397929338200913e-11 3.828644750373178057e-12
1.096993414468858360e-08 5.660398320839485160e-11 3.828645014930098915e-12
1.097751528298313301e-08 5.660398713416098386e-11 3.828645280213744793e-12
1.098510166047575830e-08 5.660399107070973853e-11 3.828645546226100440e-12
1.099269328078717789e-08 5.660399501807053220e-11 3.828645812969153028e-12
1.100029014754061824e-08 5.660399897627286552e-11 3.828646080444897807e-12
1.100789226436180884e-08 5.660400294534631663e-11 3.828646348655333259e-12
1.101549963487898057e-08 5.660400692532055419e-11 3.828646617602465135e-12
1.102311226272288061e-08 5.660401091622531146e-11 3.828646887288303225e-12
1.103073015152675421e-08 5.660401491809039926e-11 3.828647157714862975e-12
1.103835330492636291e-08 5.660401893094573179e-11 3.828647428884165483e-12
1.104598172655998620e-08 5.660402295482128143e-11 3.828647700798237504e-12
1.105361542006840825e-08 5.660402698974711102e-11 3.828647973459111446e-12
1.106125438909493449e-08 5.660403103575335450e-11 3.828648246868823758e-12
1.106889863728538828e-08 5.660403509287024919e-11 3.828648521029418156e-12
1.107654816828810928e-08 5.660403916112809059e-11 3.828648795942942398e-12
1.108420298575396500e-08 5.660404324055728403e-11 3.828649071611451510e-12
1.109186309333636073e-08 5.660404733118827366e-11 3.828649348037004558e-12
1.109952849469116348e-08 5.660405143305161345e-11 3.828649625221666263e-12
1.110719919347683427e-08 5.660405554617794785e-11 3.828649903167507807e-12
1.111487519335433883e-08 5.660405967059799242e-11 3.828650181876605219e-12
1.112255649798717408e-08 5.660406380634253378e-11 3.828650461351040185e-12
1.113024311104136644e-08 5.660406795344246195e-11 3.828650741592900041e-12
1.113793503618547680e-08 5.660407211192873158e-11 3.828651022604278590e-12
1.114563227709060222e-08 5.660407628183240073e-11 3.828651304387273670e-12
1.115333483743037753e-08 5.660408046318461145e-11 3.828651586943990393e-12
1.116104272088097369e-08 5.660408465601655102e-11 3.828651870276537907e-12
1.116875593112110608e-08 5.660408886035954247e-11 3.828652154387032630e-12
1.117647447183202787e-08 5.660409307624495402e-11 3.828652439277595831e-12
1.118419834669753827e-08 5.660409730370426378e-11 3.828652724950355235e-12
1.119192755940398424e-08 5.660410154276902093e-11 3.828653011407442611e-12
1.119966211364025547e-08 5.660410579347087160e-11 3.828653298650996996e-12
1.120740201309779599e-08 5.660411005584152005e-11 3.828653586683163082e-12
1.121514726147060086e-08 5.660411432991279983e-11 3.828653875506091216e-12
1.122289786245521285e-08 5.660411861571658970e-11 3.828654165121936590e-12
1.123065381975073403e-08 5.660412291328486536e-11 3.828654455532860860e-12
1.123841513705882079e-08 5.660412722264970591e-11 3.828654746741032952e-12
1.124618181808368885e-08 5.660413154384326152e-11 3.828655038748625023e-12
1.125395386653211484e-08 5.660413587689775994e-11 3.828655331557816500e-12
1.126173128611343141e-08 5.660414022184554522e-11 3.828655625170793272e-12
1.126951408053954373e-08 5.660414457871901957e-11 3.828655919589745268e-12
1.127730225352491295e-08 5.660414894755068215e-11 3.828656214816870494e-12
1.128509580878657442e-08 5.660415332837312257e-11 3.828656510854370995e-12
1.129289475004412774e-08 5.660415772121902740e-11 3.828656807704456086e-12
1.130069908101974506e-08 5.660416212612114136e-11 3.828657105369339930e-12
1.130850880543817268e-08 5.660416654311231902e-11 3.828657403851243960e-12
1.131632392702672617e-08 5.660417097222552483e-11 3.828657703152393645e-12
1.132414444951530020e-08 5.660417541349374908e-11 3.828658003275023344e-12
1.133197037663636697e-08 5.660417986695013715e-11 3.828658304221369837e-12
1.133980171212497781e-08 5.660418433262789258e-11 3.828658605993679597e-12
1.134763845971876488e-08 5.660418881056030294e-11 3.828658908594202330e-12
1.135548062315796757e-08 5.660419330078075918e-11 3.828659212025195012e-12
1.136332820618533995e-08 5.660419780332272981e-11 3.828659516288920270e-12
1.137118121254629129e-08 5.660420231821978672e-11 3.828659821387648007e-12
1.137903964598879516e-08 5.660420684550559229e-11 3.828660127323652160e-12
1.138690351026342080e-08 5.660421138521387997e-11 3.828660434099213938e-12
1.139477280912332322e-08 5.660421593737849309e-11 3.828660741716621822e-12
1.140264754632425478e-08 5.660422050203335898e-11 3.828661050178168328e-12
1.141052772562456188e-08 5.660422507921248897e-11 3.828661359486153246e-12
1.141841335078518662e-08 5.660422966895001720e-11 3.828661669642882017e-12
1.142630442556967339e-08 5.660423427128011655e-11 3.828661980650668163e-12
1.143420095374416725e-08 5.660423888623710211e-11 3.828662292511827629e-12
1.144210293907741391e-08 5.660424351385535356e-11 3.828662605228686858e-12
1.145001038534076471e-08 5.660424815416936046e-11 3.828662918803576337e-12
1.145792329630817824e-08 5.660425280721367053e-11 3.828663233238832203e-12
1.146584167575621875e-08 5.660425747302296072e-11 3.828663548536798674e-12
1.147376552746406268e-08 5.660426215163200494e-11 3.828663864699824814e-12
1.148169485521349707e-08 5.660426684307563524e-11 3.828664181730266148e-12
1.148962966278892287e-08 5.660427154738880000e-11 3.828664499630486281e-12
1.149756995397735654e-08 5.660427626460654455e-11 3.828664818402852048e-12
1.150551573256843178e-08 5.660428099476399820e-11 3.828665138049739976e-12
1.151346700235439945e-08 5.660428573789639368e-11 3.828665458573529827e-12
1.152142376713013424e-08 5.660429049403904127e-11 3.828665779976611862e-12
1.152938603069313137e-08 5.660429526322736756e-11 3.828666102261377956e-12
1.153735379684350985e-08 5.660430004549688961e-11 3.828666425430228873e-12
1.154532706938401748e-08 5.660430484088320204e-11 3.828666749485573453e-12
1.155330585212002918e-08 5.660430964942201579e-11 3.828667074429823768e-12
1.156129014885954535e-08 5.660431447114913873e-11 3.828667400265399966e-12
1.156927996341320509e-08 5.660431930610044983e-11 3.828667726994728661e-12
1.157727529959427795e-08 5.660432415431195082e-11 3.828668054620243734e-12
1.158527616121866554e-08 5.660432901581973392e-11 3.828668383144383913e-12
1.159328255210491150e-08 5.660433389065997536e-11 3.828668712569595199e-12
1.160129447607419653e-08 5.660433877886895477e-11 3.828669042898330859e-12
1.160931193695034003e-08 5.660434368048306808e-11 3.828669374133050625e-12
1.161733493855983153e-08 5.660434859553879527e-11 3.828669706276219075e-12
1.162536348473173145e-08 5.660435352407269382e-11 3.828670039330309674e-12
1.163339757929781666e-08 5.660435846612144405e-11 3.828670373297801539e-12
1.164143722609249116e-08 5.660436342172182962e-11 3.828670708181180252e-12
1.164948242895280925e-08 5.660436839091071178e-11 3.828671043982938664e-12
1.165753319171847052e-08 5.660437337372506163e-11 3.828671380705576087e-12
1.166558951823183482e-08 5.660437837020196011e-11 3.828671718351598298e-12
1.167365141233791721e-08 5.660438338037855928e-11 3.828672056923517534e-12
1.168171887788438636e-08 5.660438840429213396e-11 3.828672396423854111e-12
1.168979191872157115e-08 5.660439344198006883e-11 3.828672736855133193e-12
1.169787053870246234e-08 5.660439849347981320e-11 3.828673078219888826e-12
1.170595474168271254e-08 5.660440355882894563e-11 3.828673420520659100e-12
1.171404453152064120e-08 5.660440863806513516e-11 3.828673763759992602e-12
1.172213991207722963e-08 5.660441373122616066e-11 3.828674107940441961e-12
1.173024088721613425e-08 5.660441883834987859e-11 3.828674453064567073e-12
1.173834746080367168e-08 5.660442395947428753e-11 3.828674799134935915e-12
1.174645963670884029e-08 5.660442909463744428e-11 3.828675146154121310e-12
1.175457741880330854e-08 5.660443424387754131e-11 3.828675494124705773e-12
1.176270081096141839e-08 5.660443940723285510e-11 3.828675843049275859e-12
1.177082981706019183e-08 5.660444458474177201e-11 3.828676192930427009e-12
1.177896444097932928e-08 5.660444977644276240e-11 3.828676543770761126e-12
1.178710468660121285e-08 5.660445498237444526e-11 3.828676895572886576e-12
1.179525055781090641e-08 5.660446020257550421e-11 3.828677248339418994e-12
1.180340205849616215e-08 5.660446543708473274e-11 3.828677602072982093e-12
1.181155919254741562e-08 5.660447068594102771e-11 3.828677956776205243e-12
1.181972196385778906e-08 5.660447594918340233e-11 3.828678312451725080e-12
1.182789037632310300e-08 5.660448122685097318e-11 3.828678669102186321e-12
1.183606443384186295e-08 5.660448651898294735e-11 3.828679026730238529e-12
1.184424414031526942e-08 5.660449182561864821e-11 3.828679385338541768e-12
1.185242949964722280e-08 5.660449714679750902e-11 3.828679744929760142e-12
1.186062051574431847e-08 5.660450248255904705e-11 3.828680105506566638e-12
1.186881719251585335e-08 5.660450783294291525e-11 3.828680467071641517e-12
1.187701953387382596e-08 5.660451319798885062e-11 3.828680829627669885e-12
1.188522754373295786e-08 5.660451857773671292e-11 3.828681193177346539e-12
1.189344122601060937e-08 5.660452397222644593e-11 3.828681557723372743e-12
1.190166058462691843e-08 5.660452938149811620e-11 3.828681923268457835e-12
1.190988562350470639e-08 5.660453480559190662e-11 3.828682289815316811e-12
1.191811634656951105e-08 5.660454024454809701e-11 3.828682657366672741e-12
1.192635275774957508e-08 5.660454569840707058e-11 3.828683025925255969e-12
1.193459486097586093e-08 5.660455116720932687e-11 3.828683395493804914e-12
1.194284266018204916e-08 5.660455665099546882e-11 3.828683766075063652e-12
1.195109615930453350e-08 5.660456214980620276e-11 3.828684137671784335e-12
1.195935536228243073e-08 5.660456766368235782e-11 3.828684510286728000e-12
1.196762027305758239e-08 5.660457319266487296e-11 3.828684883922660535e-12
1.197589089557454812e-08 5.660457873679477763e-11 3.828685258582356708e-12
1.198416723378062222e-08 5.660458429611323701e-11 3.828685634268599370e-12
