# sqrt(Delta_m21^2) [eV]    g_IAXOplus [GeV^-1]    (varphi = pi/4, w_res = 10 eV)
1.000000e-03 9.309340e-10
1.005318e-03 9.155790e-10
1.010664e-03 9.005616e-10
1.016038e-03 8.858741e-10
1.021441e-03 8.715094e-10
1.026873e-03 8.574609e-10
1.032333e-03 8.437211e-10
1.037823e-03 8.302836e-10
1.043342e-03 8.171414e-10
1.048890e-03 8.042879e-10
1.054468e-03 7.917166e-10
1.060075e-03 7.794210e-10
1.065712e-03 7.673950e-10
1.071380e-03 7.556322e-10
1.077077e-03 7.441261e-10
1.082804e-03 7.328711e-10
1.088562e-03 7.218608e-10
1.094351e-03 7.110893e-10
1.100171e-03 7.005508e-10
1.106021e-03 6.902392e-10
1.111902e-03 6.801491e-10
1.117815e-03 6.702744e-10
1.123759e-03 6.606096e-10
1.129735e-03 6.511490e-10
1.135743e-03 6.418870e-10
1.141782e-03 6.328180e-10
1.147854e-03 6.239367e-10
1.153958e-03 6.152374e-10
1.160094e-03 6.067149e-10
1.166263e-03 5.983635e-10
1.172465e-03 5.901781e-10
1.178700e-03 5.821533e-10
1.184968e-03 5.742838e-10
1.191269e-03 5.665644e-10
1.197604e-03 5.589899e-10
1.203973e-03 5.515551e-10
1.210375e-03 5.442549e-10
1.216812e-03 5.370843e-10
1.223282e-03 5.300383e-10
1.229787e-03 5.231120e-10
1.236327e-03 5.163004e-10
1.242901e-03 5.095989e-10
1.249511e-03 5.030026e-10
1.256155e-03 4.965071e-10
1.262835e-03 4.901079e-10
1.269551e-03 4.838005e-10
1.276302e-03 4.775806e-10
1.283089e-03 4.714443e-10
1.289912e-03 4.653875e-10
1.296771e-03 4.594064e-10
1.303667e-03 4.534974e-10
1.310600e-03 4.476570e-10
1.317569e-03 4.418820e-10
1.324575e-03 4.361694e-10
1.331619e-03 4.305163e-10
1.338700e-03 4.249202e-10
1.345819e-03 4.193786e-10
1.352976e-03 4.138896e-10
1.360170e-03 4.084511e-10
1.367403e-03 4.030616e-10
1.374675e-03 3.977197e-10
1.381985e-03 3.924244e-10
1.389334e-03 3.871747e-10
1.396722e-03 3.819700e-10
1.404149e-03 3.768100e-10
1.411616e-03 3.716945e-10
1.419123e-03 3.666235e-10
1.426669e-03 3.615974e-10
1.434256e-03 3.566165e-10
1.441883e-03 3.516816e-10
1.449550e-03 3.467934e-10
1.457259e-03 3.419529e-10
1.465008e-03 3.371611e-10
1.472798e-03 3.324191e-10
1.480630e-03 3.277283e-10
1.488504e-03 3.230897e-10
1.496419e-03 3.185048e-10
1.504377e-03 3.139749e-10
1.512377e-03 3.095013e-10
1.520419e-03 3.050852e-10
1.528504e-03 3.007280e-10
1.536632e-03 2.964307e-10
1.544804e-03 2.921946e-10
1.553019e-03 2.880206e-10
1.561277e-03 2.839097e-10
1.569580e-03 2.798626e-10
1.577926e-03 2.758801e-10
1.586317e-03 2.719626e-10
1.594753e-03 2.681107e-10
1.603233e-03 2.643246e-10
1.611759e-03 2.606045e-10
1.620329e-03 2.569504e-10
1.628946e-03 2.533622e-10
1.637608e-03 2.498396e-10
1.646317e-03 2.463824e-10
1.655071e-03 2.429900e-10
1.663872e-03 2.396620e-10
1.672720e-03 2.363975e-10
1.681615e-03 2.331959e-10
1.690558e-03 2.300564e-10
1.699548e-03 2.269780e-10
1.708585e-03 2.239599e-10
1.717671e-03 2.210009e-10
1.726805e-03 2.181002e-10
1.735988e-03 2.152566e-10
1.745219e-03 2.124692e-10
1.754500e-03 2.097368e-10
1.763830e-03 2.070583e-10
1.773209e-03 2.044329e-10
1.782639e-03 2.018593e-10
1.792118e-03 1.993367e-10
1.801648e-03 1.968639e-10
1.811229e-03 1.944400e-10
1.820860e-03 1.920640e-10
1.830543e-03 1.897349e-10
1.840278e-03 1.874516e-10
1.850064e-03 1.852131e-10
1.859902e-03 1.830182e-10
1.869792e-03 1.808659e-10
1.879735e-03 1.787549e-10
1.889731e-03 1.766839e-10
1.899780e-03 1.746516e-10
1.909883e-03 1.726563e-10
1.920039e-03 1.706967e-10
1.930249e-03 1.687709e-10
1.940513e-03 1.668773e-10
1.950833e-03 1.650140e-10
1.961207e-03 1.631793e-10
1.971636e-03 1.613714e-10
1.982120e-03 1.595884e-10
1.992661e-03 1.578286e-10
2.003257e-03 1.560904e-10
2.013910e-03 1.543723e-10
2.024619e-03 1.526728e-10
2.035385e-03 1.509908e-10
2.046209e-03 1.493252e-10
2.057090e-03 1.476751e-10
2.068029e-03 1.460399e-10
2.079026e-03 1.444190e-10
2.090082e-03 1.428122e-10
2.101196e-03 1.412193e-10
2.112370e-03 1.396401e-10
2.123603e-03 1.380750e-10
2.134896e-03 1.365241e-10
2.146248e-03 1.349876e-10
2.157662e-03 1.334661e-10
2.169135e-03 1.319599e-10
2.180670e-03 1.304694e-10
2.192266e-03 1.289952e-10
2.203924e-03 1.275376e-10
2.215644e-03 1.260970e-10
2.227426e-03 1.246738e-10
2.239271e-03 1.232682e-10
2.251179e-03 1.218806e-10
2.263150e-03 1.205111e-10
2.275185e-03 1.191598e-10
2.287284e-03 1.178266e-10
2.299447e-03 1.165116e-10
2.311674e-03 1.152148e-10
2.323967e-03 1.139359e-10
2.336325e-03 1.126748e-10
2.348749e-03 1.114313e-10
2.361239e-03 1.102052e-10
2.373796e-03 1.089961e-10
2.386419e-03 1.078040e-10
2.399109e-03 1.066285e-10
2.411867e-03 1.054693e-10
2.424692e-03 1.043263e-10
2.437586e-03 1.031991e-10
2.450549e-03 1.020876e-10
2.463580e-03 1.009916e-10
2.476681e-03 9.991088e-11
2.489851e-03 9.884530e-11
2.503091e-03 9.779475e-11
2.516402e-03 9.675918e-11
2.529783e-03 9.573854e-11
2.543236e-03 9.473287e-11
2.556760e-03 9.374223e-11
2.570356e-03 9.276672e-11
2.584025e-03 9.180649e-11
2.597766e-03 9.086167e-11
2.611580e-03 8.993241e-11
2.625468e-03 8.901880e-11
2.639429e-03 8.812084e-11
2.653465e-03 8.723840e-11
2.667575e-03 8.637120e-11
2.681761e-03 8.551872e-11
2.696021e-03 8.468029e-11
2.710358e-03 8.385502e-11
2.724771e-03 8.304193e-11
2.739260e-03 8.223997e-11
2.753827e-03 8.144813e-11
2.768471e-03 8.066544e-11
2.783193e-03 7.989106e-11
2.797993e-03 7.912428e-11
2.812872e-03 7.836450e-11
2.827830e-03 7.761126e-11
2.842868e-03 7.686421e-11
2.857985e-03 7.612308e-11
2.873183e-03 7.538770e-11
2.888462e-03 7.465796e-11
2.903822e-03 7.393378e-11
2.919264e-03 7.321516e-11
2.934788e-03 7.250209e-11
2.950394e-03 7.179463e-11
2.966083e-03 7.109286e-11
2.981856e-03 7.039687e-11
2.997713e-03 6.970680e-11
3.013654e-03 6.902280e-11
3.029679e-03 6.834502e-11
3.045790e-03 6.767366e-11
3.061987e-03 6.700888e-11
3.078270e-03 6.635086e-11
3.094639e-03 6.569977e-11
3.111095e-03 6.505573e-11
3.127639e-03 6.441886e-11
3.144271e-03 6.378926e-11
3.160992e-03 6.316699e-11
3.177801e-03 6.255208e-11
3.194699e-03 6.194456e-11
3.211688e-03 6.134443e-11
3.228767e-03 6.075170e-11
3.245936e-03 6.016635e-11
3.263197e-03 5.958837e-11
3.280550e-03 5.901777e-11
3.297995e-03 5.845458e-11
3.315533e-03 5.789885e-11
3.333164e-03 5.735074e-11
3.350889e-03 5.681048e-11
3.368708e-03 5.627848e-11
3.386622e-03 5.575521e-11
3.404631e-03 5.524095e-11
3.422735e-03 5.473532e-11
3.440937e-03 5.423725e-11
3.459234e-03 5.374553e-11
3.477630e-03 5.325918e-11
3.496123e-03 5.277753e-11
3.514714e-03 5.230014e-11
3.533404e-03 5.182669e-11
3.552194e-03 5.135701e-11
3.571083e-03 5.089098e-11
3.590073e-03 5.042854e-11
3.609164e-03 4.996969e-11
3.628357e-03 4.951446e-11
3.647651e-03 4.906288e-11
3.667049e-03 4.861501e-11
3.686549e-03 4.817092e-11
3.706153e-03 4.773066e-11
3.725861e-03 4.729428e-11
3.745674e-03 4.686181e-11
3.765593e-03 4.643327e-11
3.785617e-03 4.600866e-11
3.805748e-03 4.558800e-11
3.825986e-03 4.517129e-11
3.846331e-03 4.475854e-11
3.866785e-03 4.434979e-11
3.887347e-03 4.394510e-11
3.908019e-03 4.354453e-11
3.928801e-03 4.314817e-11
3.949693e-03 4.275613e-11
3.970696e-03 4.236848e-11
3.991811e-03 4.198534e-11
4.013039e-03 4.160678e-11
4.034379e-03 4.123283e-11
4.055832e-03 4.086345e-11
4.077400e-03 4.049854e-11
4.099083e-03 4.013796e-11
4.120880e-03 3.978160e-11
4.142794e-03 3.942934e-11
4.164824e-03 3.908110e-11
4.186971e-03 3.873681e-11
4.209237e-03 3.839642e-11
4.231620e-03 3.805983e-11
4.254123e-03 3.772691e-11
4.276745e-03 3.739752e-11
4.299487e-03 3.707150e-11
4.322351e-03 3.674869e-11
4.345336e-03 3.642896e-11
4.368443e-03 3.611220e-11
4.391673e-03 3.579837e-11
4.415027e-03 3.548746e-11
4.438505e-03 3.517949e-11
4.462107e-03 3.487449e-11
4.485835e-03 3.457246e-11
4.509690e-03 3.427337e-11
4.533671e-03 3.397714e-11
4.557780e-03 3.368369e-11
4.582017e-03 3.339288e-11
4.606383e-03 3.310463e-11
4.630878e-03 3.281888e-11
4.655504e-03 3.253563e-11
4.680260e-03 3.225489e-11
4.705148e-03 3.197673e-11
4.730169e-03 3.170119e-11
4.755323e-03 3.142830e-11
4.780610e-03 3.115806e-11
4.806032e-03 3.089045e-11
4.831589e-03 3.062543e-11
4.857282e-03 3.036296e-11
4.883112e-03 3.010305e-11
4.909079e-03 2.984573e-11
4.935184e-03 2.959108e-11
4.961428e-03 2.933918e-11
4.987811e-03 2.909015e-11
5.014335e-03 2.884409e-11
5.041000e-03 2.860142e-11
5.067806e-03 2.836490e-11
5.094755e-03 2.813108e-11
5.121848e-03 2.789921e-11
5.149084e-03 2.766921e-11
5.176466e-03 2.744107e-11
5.203993e-03 2.721485e-11
5.231666e-03 2.699058e-11
5.259486e-03 2.676827e-11
5.287455e-03 2.654788e-11
5.315572e-03 2.632936e-11
5.343839e-03 2.611268e-11
5.372256e-03 2.589782e-11
5.400824e-03 2.568482e-11
5.429544e-03 2.547375e-11
5.458416e-03 2.526468e-11
5.487443e-03 2.505767e-11
5.516623e-03 2.485271e-11
5.545959e-03 2.464976e-11
5.575451e-03 2.444878e-11
5.605100e-03 2.424969e-11
5.634906e-03 2.405250e-11
5.664871e-03 2.385725e-11
5.694995e-03 2.366398e-11
5.725279e-03 2.347276e-11
5.755725e-03 2.328361e-11
5.786332e-03 2.309649e-11
5.817102e-03 2.291136e-11
5.848035e-03 2.272818e-11
5.879134e-03 2.254701e-11
5.910397e-03 2.236792e-11
5.941827e-03 2.219098e-11
5.973424e-03 2.201618e-11
6.005189e-03 2.184336e-11
6.037123e-03 2.167235e-11
6.069226e-03 2.150298e-11
6.101501e-03 2.133517e-11
6.133947e-03 2.116889e-11
6.166565e-03 2.100420e-11
6.199357e-03 2.084112e-11
6.232324e-03 2.067964e-11
6.265465e-03 2.051968e-11
6.298783e-03 2.036117e-11
6.332278e-03 2.020408e-11
6.365952e-03 2.004842e-11
6.399804e-03 1.989423e-11
6.433836e-03 1.974160e-11
6.468049e-03 1.959056e-11
6.502445e-03 1.944109e-11
6.537023e-03 1.929316e-11
6.571785e-03 1.914671e-11
6.606732e-03 1.900169e-11
6.641864e-03 1.885812e-11
6.677184e-03 1.871603e-11
6.712691e-03 1.857545e-11
6.748387e-03 1.843633e-11
6.784273e-03 1.829859e-11
6.820350e-03 1.816220e-11
6.856619e-03 1.802716e-11
6.893080e-03 1.789353e-11
6.929736e-03 1.776138e-11
6.966586e-03 1.763074e-11
7.003632e-03 1.750159e-11
7.040876e-03 1.737388e-11
7.078317e-03 1.724756e-11
7.115957e-03 1.712262e-11
7.153798e-03 1.699908e-11
7.191840e-03 1.687689e-11
7.230084e-03 1.675600e-11
7.268531e-03 1.663631e-11
7.307183e-03 1.651776e-11
7.346041e-03 1.640034e-11
7.385105e-03 1.628408e-11
7.424377e-03 1.616901e-11
7.463857e-03 1.605515e-11
7.503548e-03 1.594248e-11
7.543450e-03 1.583095e-11
7.583564e-03 1.572052e-11
7.623891e-03 1.561118e-11
7.664432e-03 1.550298e-11
7.705190e-03 1.539593e-11
7.746164e-03 1.529006e-11
7.787355e-03 1.518531e-11
7.828766e-03 1.508166e-11
7.870397e-03 1.497905e-11
7.912250e-03 1.487751e-11
7.954325e-03 1.477704e-11
7.996624e-03 1.467768e-11
8.039148e-03 1.457943e-11
8.081897e-03 1.448229e-11
8.124875e-03 1.438644e-11
8.168080e-03 1.429187e-11
8.211516e-03 1.419841e-11
8.255182e-03 1.410605e-11
8.299081e-03 1.401478e-11
8.343213e-03 1.392455e-11
8.387580e-03 1.383531e-11
8.432183e-03 1.374703e-11
8.477022e-03 1.365970e-11
8.522101e-03 1.357334e-11
8.567419e-03 1.348796e-11
8.612978e-03 1.340358e-11
8.658779e-03 1.332018e-11
8.704824e-03 1.323774e-11
8.751114e-03 1.315624e-11
8.797650e-03 1.307566e-11
8.844433e-03 1.299601e-11
8.891465e-03 1.291730e-11
8.938747e-03 1.283953e-11
8.986281e-03 1.276272e-11
9.034068e-03 1.268683e-11
9.082108e-03 1.261185e-11
9.130404e-03 1.253778e-11
9.178957e-03 1.246460e-11
9.227768e-03 1.239231e-11
9.276839e-03 1.232092e-11
9.326170e-03 1.225044e-11
9.375764e-03 1.218086e-11
9.425622e-03 1.211218e-11
9.475744e-03 1.204437e-11
9.526134e-03 1.197743e-11
9.576791e-03 1.191135e-11
9.627717e-03 1.184611e-11
9.678915e-03 1.178172e-11
9.730384e-03 1.171819e-11
9.782128e-03 1.165550e-11
9.834146e-03 1.159367e-11
9.886441e-03 1.153269e-11
9.939015e-03 1.147255e-11
9.991867e-03 1.141324e-11
1.004500e-02 1.135475e-11
1.009842e-02 1.129707e-11
1.015212e-02 1.124020e-11
1.020610e-02 1.118415e-11
1.026038e-02 1.112892e-11
1.031494e-02 1.107450e-11
1.036979e-02 1.102090e-11
1.042493e-02 1.096811e-11
1.048037e-02 1.091612e-11
1.053610e-02 1.086495e-11
1.059213e-02 1.081457e-11
1.064846e-02 1.076500e-11
1.070508e-02 1.071622e-11
1.076201e-02 1.066823e-11
1.081924e-02 1.062104e-11
1.087677e-02 1.057465e-11
1.093461e-02 1.052904e-11
1.099276e-02 1.048421e-11
1.105121e-02 1.044018e-11
1.110998e-02 1.039692e-11
1.116906e-02 1.035444e-11
1.122845e-02 1.031275e-11
1.128816e-02 1.027182e-11
1.134819e-02 1.023168e-11
1.140854e-02 1.019230e-11
1.146921e-02 1.015370e-11
1.153020e-02 1.011587e-11
1.159151e-02 1.007881e-11
1.165315e-02 1.004251e-11
1.171512e-02 1.000697e-11
1.177742e-02 9.972193e-12
1.184004e-02 9.938184e-12
1.190301e-02 9.904943e-12
1.196630e-02 9.872469e-12
1.202994e-02 9.840761e-12
1.209391e-02 9.809822e-12
1.215822e-02 9.779652e-12
1.222287e-02 9.750253e-12
1.228787e-02 9.721629e-12
1.235321e-02 9.693781e-12
1.241891e-02 9.666714e-12
1.248495e-02 9.640429e-12
1.255134e-02 9.614926e-12
1.261808e-02 9.590205e-12
1.268518e-02 9.566260e-12
1.275264e-02 9.543093e-12
1.282045e-02 9.520702e-12
1.288863e-02 9.499090e-12
1.295717e-02 9.478261e-12
1.302607e-02 9.458220e-12
1.309534e-02 9.438970e-12
1.316497e-02 9.420515e-12
1.323498e-02 9.402859e-12
1.330536e-02 9.386000e-12
1.337612e-02 9.369941e-12
1.344725e-02 9.354681e-12
1.351875e-02 9.340225e-12
1.359064e-02 9.326580e-12
1.366291e-02 9.313753e-12
1.373557e-02 9.301750e-12
1.380861e-02 9.290568e-12
1.388204e-02 9.280204e-12
1.395586e-02 9.270663e-12
1.403008e-02 9.261953e-12
1.410468e-02 9.254085e-12
1.417969e-02 9.247068e-12
1.425509e-02 9.240900e-12
1.433090e-02 9.235576e-12
1.440710e-02 9.231102e-12
1.448372e-02 9.227488e-12
1.456074e-02 9.224751e-12
1.463817e-02 9.222897e-12
1.471601e-02 9.221922e-12
1.479426e-02 9.221828e-12
1.487293e-02 9.222626e-12
1.495202e-02 9.224340e-12
1.503153e-02 9.226989e-12
1.511147e-02 9.230595e-12
1.519183e-02 9.235179e-12
1.527261e-02 9.240705e-12
1.535383e-02 9.247176e-12
1.543547e-02 9.254590e-12
1.551756e-02 9.262957e-12
1.560007e-02 9.272298e-12
1.568303e-02 9.282628e-12
1.576643e-02 9.293948e-12
1.585027e-02 9.306259e-12
1.593456e-02 9.319580e-12
1.601929e-02 9.333932e-12
1.610448e-02 9.349322e-12
1.619012e-02 9.365755e-12
1.627621e-02 9.383248e-12
1.636276e-02 9.401829e-12
1.644978e-02 9.421518e-12
1.653725e-02 9.442325e-12
1.662519e-02 9.464273e-12
1.671360e-02 9.487378e-12
1.680248e-02 9.511639e-12
1.689183e-02 9.537060e-12
1.698165e-02 9.563662e-12
1.707196e-02 9.591468e-12
1.716274e-02 9.620488e-12
1.725401e-02 9.650744e-12
1.734576e-02 9.682261e-12
1.743800e-02 9.715050e-12
1.753073e-02 9.749119e-12
1.762395e-02 9.784485e-12
1.771767e-02 9.821183e-12
1.781189e-02 9.859239e-12
1.790661e-02 9.898669e-12
1.800183e-02 9.939493e-12
1.809756e-02 9.981752e-12
1.819380e-02 1.002549e-11
1.829055e-02 1.007071e-11
1.838781e-02 1.011744e-11
1.848559e-02 1.016571e-11
1.858389e-02 1.021552e-11
1.868272e-02 1.026691e-11
1.878206e-02 1.031991e-11
1.888194e-02 1.037454e-11
1.898235e-02 1.043084e-11
1.908329e-02 1.048883e-11
1.918477e-02 1.054853e-11
1.928679e-02 1.060999e-11
1.938935e-02 1.067325e-11
1.949246e-02 1.073834e-11
1.959612e-02 1.080532e-11
1.970032e-02 1.087428e-11
1.980508e-02 1.094519e-11
1.991040e-02 1.101809e-11
2.001628e-02 1.109301e-11
2.012272e-02 1.117001e-11
2.022973e-02 1.124912e-11
2.033730e-02 1.133037e-11
2.044545e-02 1.141383e-11
2.055417e-02 1.149954e-11
2.066347e-02 1.158754e-11
2.077336e-02 1.167789e-11
2.088382e-02 1.177064e-11
2.099488e-02 1.186585e-11
2.110652e-02 1.196356e-11
2.121876e-02 1.206384e-11
2.133160e-02 1.216675e-11
2.144503e-02 1.227235e-11
2.155907e-02 1.238070e-11
2.167371e-02 1.249186e-11
2.178897e-02 1.260589e-11
2.190484e-02 1.272284e-11
2.202132e-02 1.284279e-11
2.213842e-02 1.296580e-11
2.225615e-02 1.309194e-11
2.237450e-02 1.322127e-11
2.249348e-02 1.335387e-11
2.261309e-02 1.348982e-11
2.273334e-02 1.362920e-11
2.285423e-02 1.377207e-11
2.297577e-02 1.391852e-11
2.309794e-02 1.406864e-11
2.322077e-02 1.422253e-11
2.334425e-02 1.438028e-11
2.346839e-02 1.454195e-11
2.359319e-02 1.470765e-11
2.371865e-02 1.487744e-11
2.384478e-02 1.505143e-11
2.397158e-02 1.522969e-11
2.409905e-02 1.541233e-11
2.422721e-02 1.559944e-11
2.435604e-02 1.579110e-11
2.448556e-02 1.598741e-11
2.461576e-02 1.618847e-11
2.474666e-02 1.639437e-11
2.487826e-02 1.660520e-11
2.501056e-02 1.682107e-11
2.514355e-02 1.704206e-11
2.527726e-02 1.726827e-11
2.541168e-02 1.749980e-11
2.554681e-02 1.773673e-11
2.568266e-02 1.797916e-11
2.581923e-02 1.822718e-11
2.595653e-02 1.848088e-11
2.609456e-02 1.874031e-11
2.623332e-02 1.900556e-11
2.637283e-02 1.927669e-11
2.651307e-02 1.955375e-11
2.665406e-02 1.983680e-11
2.679580e-02 2.012587e-11
2.693829e-02 2.042101e-11
2.708154e-02 2.072222e-11
2.722555e-02 2.102953e-11
2.737033e-02 2.134292e-11
2.751588e-02 2.166238e-11
2.766220e-02 2.198788e-11
2.780930e-02 2.231936e-11
2.795718e-02 2.265676e-11
2.810585e-02 2.299998e-11
2.825530e-02 2.334892e-11
2.840556e-02 2.370345e-11
2.855661e-02 2.406341e-11
2.870847e-02 2.442861e-11
2.886113e-02 2.479886e-11
2.901461e-02 2.517392e-11
2.916890e-02 2.555354e-11
2.932401e-02 2.593743e-11
2.947994e-02 2.632527e-11
2.963671e-02 2.671675e-11
2.979431e-02 2.711147e-11
2.995275e-02 2.750907e-11
3.011203e-02 2.790914e-11
3.027215e-02 2.831125e-11
3.043313e-02 2.871496e-11
3.059497e-02 2.911981e-11
3.075766e-02 2.952533e-11
3.092122e-02 2.993106e-11
3.108565e-02 3.033652e-11
3.125096e-02 3.074125e-11
3.141714e-02 3.114478e-11
3.158421e-02 3.154669e-11
3.175216e-02 3.194655e-11
3.192101e-02 3.234395e-11
3.209076e-02 3.273855e-11
3.226141e-02 3.313002e-11
3.243297e-02 3.351805e-11
3.260543e-02 3.390241e-11
3.277882e-02 3.428291e-11
3.295313e-02 3.465940e-11
3.312836e-02 3.503178e-11
3.330453e-02 3.540001e-11
3.348164e-02 3.576409e-11
3.365968e-02 3.612409e-11
3.383867e-02 3.648011e-11
3.401862e-02 3.683232e-11
3.419952e-02 3.718092e-11
3.438138e-02 3.752614e-11
3.456421e-02 3.786829e-11
3.474801e-02 3.820767e-11
3.493279e-02 3.854463e-11
3.511856e-02 3.887955e-11
3.530531e-02 3.921283e-11
3.549305e-02 3.954489e-11
3.568179e-02 3.987616e-11
3.587154e-02 4.020708e-11
3.606229e-02 4.053811e-11
3.625406e-02 4.086970e-11
3.644685e-02 4.120231e-11
3.664066e-02 4.153639e-11
3.683551e-02 4.187241e-11
3.703139e-02 4.221079e-11
3.722831e-02 4.255200e-11
3.742628e-02 4.289646e-11
3.762530e-02 4.324458e-11
3.782538e-02 4.359681e-11
3.802653e-02 4.395350e-11
3.822874e-02 4.431508e-11
3.843203e-02 4.468190e-11
3.863640e-02 4.505432e-11
3.884186e-02 4.543271e-11
3.904841e-02 4.581738e-11
3.925606e-02 4.620866e-11
3.946481e-02 4.660688e-11
3.967467e-02 4.701228e-11
3.988565e-02 4.742519e-11
4.009775e-02 4.784586e-11
4.031098e-02 4.827451e-11
4.052534e-02 4.871145e-11
4.074084e-02 4.915682e-11
4.095749e-02 4.961090e-11
4.117529e-02 5.007384e-11
4.139425e-02 5.054583e-11
4.161437e-02 5.102710e-11
4.183566e-02 5.151769e-11
4.205813e-02 5.201787e-11
4.228179e-02 5.252767e-11
4.250663e-02 5.304725e-11
4.273267e-02 5.357672e-11
4.295991e-02 5.411608e-11
4.318836e-02 5.466555e-11
4.341802e-02 5.522501e-11
4.364890e-02 5.579467e-11
4.388101e-02 5.637441e-11
4.411436e-02 5.696433e-11
4.434895e-02 5.756441e-11
4.458478e-02 5.817457e-11
4.482187e-02 5.879491e-11
4.506022e-02 5.942518e-11
4.529984e-02 6.006556e-11
4.554073e-02 6.071570e-11
4.578290e-02 6.137579e-11
4.602636e-02 6.204547e-11
4.627112e-02 6.272484e-11
4.651717e-02 6.341363e-11
4.676454e-02 6.411177e-11
4.701322e-02 6.481915e-11
4.726322e-02 6.553550e-11
4.751455e-02 6.626088e-11
4.776722e-02 6.699487e-11
4.802124e-02 6.773763e-11
4.827660e-02 6.848866e-11
4.853332e-02 6.924824e-11
4.879141e-02 7.001575e-11
4.905086e-02 7.079158e-11
4.931170e-02 7.157511e-11
4.957393e-02 7.236677e-11
4.983755e-02 7.316591e-11
5.010257e-02 7.397310e-11
5.036900e-02 7.478763e-11
5.063685e-02 7.561017e-11
5.090612e-02 7.644005e-11
5.117682e-02 7.727801e-11
5.144897e-02 7.812335e-11
5.172256e-02 7.897693e-11
5.199760e-02 7.983810e-11
5.227411e-02 8.070772e-11
5.255209e-02 8.158521e-11
5.283155e-02 8.247142e-11
5.311249e-02 8.336594e-11
5.339493e-02 8.426941e-11
5.367887e-02 8.518169e-11
5.396431e-02 8.610313e-11
5.425128e-02 8.703405e-11
5.453977e-02 8.797419e-11
5.482980e-02 8.892442e-11
5.512137e-02 8.988392e-11
5.541449e-02 9.085406e-11
5.570917e-02 9.183359e-11
5.600541e-02 9.282386e-11
5.630323e-02 9.382381e-11
5.660264e-02 9.483422e-11
5.690363e-02 9.585490e-11
5.720623e-02 9.688531e-11
5.751044e-02 9.792645e-11
5.781626e-02 9.897664e-11
